{
  "AcquisitionMatrixPE": 70,
  "AcquisitionNumber": 1,
  "AcquisitionTime": "10:31:11.475000",
  "BandwidthPerPixelPhaseEncode": 51.948,
  "BaseResolution": 70,
  "BodyPartExamined": "HEAD",
  "CoilCombinationMethod": "Sum of Squares",
  "ConsistencyInfo": "N4_VE11C_LATEST_20160120",
  "ConversionSoftware": "dcm2niix",
  "ConversionSoftwareVersion": "v1.0.20220720",
  "DerivedVendorReportedEchoSpacing": 0.000550001,
  "DeviceSerialNumber": "66061",
  "DwellTime": 3.3e-06,
  "EchoTime": 0.022,
  "EchoTrainLength": 35,
  "EffectiveEchoSpacing": 0.000275,
  "FlipAngle": 90,
  "HeudiconvVersion": "1.1.1",
  "ImageOrientationPatientDICOM": [0.999965, 0.00252024, 0.00800624, -0.00122165, 0.987401, -0.158236],
  "ImageOrientationText": "Tra>Cor(-9.1)>Sag(0.5)",
  "ImageType": [
    "ORIGINAL",
    "PRIMARY",
    "M",
    "ND",
    "NORM",
    "MOSAIC"
],
  "ImagingFrequency": 123.254,
  "InPlanePhaseEncodingDirectionDICOM": "COL",
  "InstitutionAddress": "Street StreetNo,City/1c4204/,District,KR,ZIP",
  "InstitutionName": "SKKU",
  "InstitutionalDepartmentName": "Department",
  "MRAcquisitionType": "2D",
  "MagneticFieldStrength": 3,
  "Manufacturer": "Siemens",
  "ManufacturersModelName": "Prisma",
  "MatrixCoilMode": "GRAPPA",
  "Modality": "MR",
  "NonlinearGradientCorrection": false,
  "ParallelReductionFactorInPlane": 2,
  "PartialFourier": 1,
  "PatientPosition": "HFS",
  "PercentPhaseFOV": 100,
  "PercentSampling": 100,
  "PhaseEncodingDirection": "j-",
  "PhaseEncodingSteps": 70,
  "PhaseResolution": 1,
  "PixelBandwidth": 2165,
  "ProcedureStepDescription": "Head^PI:Others",
  "ProtocolName": "BOLD_ep2d_3x3x3_dimension2",
  "PulseSequenceDetails": "%SiemensSeq%\\ep2d_pace",
  "ReceiveCoilActiveElements": "HC1-7",
  "ReceiveCoilName": "HeadNeck_64",
  "ReconMatrixPE": 70,
  "RefLinesPE": 24,
  "RepetitionTime": 2,
  "SAR": 0.123853,
  "ScanOptions": "FS",
  "ScanningSequence": "EP",
  "SequenceName": "*epfid2d1_70",
  "SequenceVariant": "SK",
  "SeriesDescription": "BOLD_ep2d_3x3x3_dimension2",
  "SeriesNumber": 6,
  "ShimSetting": [5051, 3724, 4459, 415, -49, 40, -42, 31],
  "SliceThickness": 3,
  "SliceTiming": [0.99, 0, 1.035, 0.045, 1.0825, 0.0925, 1.13, 0.14, 1.1775, 0.1875, 1.225, 0.235, 1.2725, 0.2825, 1.32, 0.33, 1.365, 0.375, 1.4125, 0.4225, 1.46, 0.47, 1.5075, 0.5175, 1.555, 0.565, 1.6025, 0.6125, 1.65, 0.66, 1.695, 0.705, 1.7425, 0.7525, 1.79, 0.8, 1.8375, 0.8475, 1.885, 0.895, 1.9325, 0.9425],
  "SoftwareVersions": "syngo MR E11",
  "SpacingBetweenSlices": 3,
  "StationName": "AWP66061",
  "TaskName": "dimension",
  "TotalReadoutTime": 0.018975,
  "TxRefAmp": 222.403,
  "dcmmeta_affine": [
    [-2.999894380569458, -0.003664958057925105, 0.02491249144077301, 105.30980682373047],
    [-0.007560720667243004, 2.9622015953063965, -0.47466224431991577, -95.55081939697266],
    [0.024018732830882072, 0.47470828890800476, 2.962106704711914, -61.95520782470703],
    [0.0, 0.0, 0.0, 1.0]
],
  "dcmmeta_reorient_transform": [
    [0.0, -1.0, 0.0, 69.0],
    [1.0, 0.0, 0.0, 0.0],
    [0.0, 0.0, -1.0, 41.0],
    [0.0, 0.0, 0.0, 1.0]
],
  "dcmmeta_shape": [70, 70, 42, 437],
  "dcmmeta_slice_dim": 2,
  "dcmmeta_version": 0.6,
  "global": {
    "const": {
      "AcquisitionMatrix": [70, 0, 0, 70],
      "AngioFlag": "N",
      "BitsAllocated": 16,
      "BitsStored": 12,
      "BodyPartExamined": "HEAD",
      "Columns": 490,
      "EchoNumbers": 1,
      "EchoTime": 22.0,
      "EchoTrainLength": 35,
      "FlipAngle": 90.0,
      "HighBit": 11,
      "ImageOrientationPatient": [0.99996477359851, 0.00252024016387, 0.00800624453724, -0.0012216526813, 0.98740054972606, -0.1582360956464],
      "ImagePositionPatient": [-735.2865060022, -713.03003778651, 186.89084150514],
      "ImageType": [
        "ORIGINAL",
        "PRIMARY",
        "M",
        "ND",
        "NORM",
        "MOSAIC"
],
      "ImagedNucleus": "1H",
      "ImagingFrequency": 123.254021,
      "InPlanePhaseEncodingDirection": "COL",
      "MRAcquisitionType": "2D",
      "MagneticFieldStrength": 3.0,
      "Manufacturer": "SIEMENS",
      "ManufacturerModelName": "Prisma",
      "Modality": "MR",
      "NumberOfAverages": 1.0,
      "NumberOfPhaseEncodingSteps": 70,
      "PercentPhaseFieldOfView": 100.0,
      "PercentSampling": 100.0,
      "PerformedProcedureStepStartTime": "100132.476000",
      "PhotometricInterpretation": "MONOCHROME2",
      "PixelBandwidth": 2165.0,
      "PixelRepresentation": 0,
      "PixelSpacing": [3.0, 3.0],
      "ProtocolName": "BOLD_ep2d_3x3x3_dimension2",
      "RepetitionTime": 2000.0,
      "Rows": 490,
      "SAR": 0.12385291808652,
      "SamplesPerPixel": 1,
      "ScanOptions": "FS",
      "ScanningSequence": "EP",
      "SequenceName": "*epfid2d1_70",
      "SequenceVariant": "SK",
      "SeriesDescription": "BOLD_ep2d_3x3x3_dimension2",
      "SeriesNumber": 6,
      "SeriesTime": "103200.642000",
      "SliceLocation": 77.819992942243,
      "SliceThickness": 3.0,
      "SmallestImagePixelValue": 0,
      "SoftwareVersions": "syngo MR E11",
      "SpacingBetweenSlices": 3.0000001187653,
      "SpecificCharacterSet": "ISO_IR 100",
      "StudyID": "1",
      "StudyTime": "100132.423000",
      "TransmitCoilName": "Body",
      "VariableFlipAngleFlag": "N",
      "WindowCenterWidthExplanation": "Algo1",
      "dBdt": 0.0},
    "slices": {}
  },
  "time": {
    "samples": {
      "AcquisitionNumber": [1, 2, 3, 4, 5, 6, 7, 8, 9, 10, 11, 12, 13, 14, 15, 16, 17, 18, 19, 20, 21, 22, 23, 24, 25, 26, 27, 28, 29, 30, 31, 32, 33, 34, 35, 36, 37, 38, 39, 40, 41, 42, 43, 44, 45, 46, 47, 48, 49, 50, 51, 52, 53, 54, 55, 56, 57, 58, 59, 60, 61, 62, 63, 64, 65, 66, 67, 68, 69, 70, 71, 72, 73, 74, 75, 76, 77, 78, 79, 80, 81, 82, 83, 84, 85, 86, 87, 88, 89, 90, 91, 92, 93, 94, 95, 96, 97, 98, 99, 100, 101, 102, 103, 104, 105, 106, 107, 108, 109, 110, 111, 112, 113, 114, 115, 116, 117, 118, 119, 120, 121, 122, 123, 124, 125, 126, 127, 128, 129, 130, 131, 132, 133, 134, 135, 136, 137, 138, 139, 140, 141, 142, 143, 144, 145, 146, 147, 148, 149, 150, 151, 152, 153, 154, 155, 156, 157, 158, 159, 160, 161, 162, 163, 164, 165, 166, 167, 168, 169, 170, 171, 172, 173, 174, 175, 176, 177, 178, 179, 180, 181, 182, 183, 184, 185, 186, 187, 188, 189, 190, 191, 192, 193, 194, 195, 196, 197, 198, 199, 200, 201, 202, 203, 204, 205, 206, 207, 208, 209, 210, 211, 212, 213, 214, 215, 216, 217, 218, 219, 220, 221, 222, 223, 224, 225, 226, 227, 228, 229, 230, 231, 232, 233, 234, 235, 236, 237, 238, 239, 240, 241, 242, 243, 244, 245, 246, 247, 248, 249, 250, 251, 252, 253, 254, 255, 256, 257, 258, 259, 260, 261, 262, 263, 264, 265, 266, 267, 268, 269, 270, 271, 272, 273, 274, 275, 276, 277, 278, 279, 280, 281, 282, 283, 284, 285, 286, 287, 288, 289, 290, 291, 292, 293, 294, 295, 296, 297, 298, 299, 300, 301, 302, 303, 304, 305, 306, 307, 308, 309, 310, 311, 312, 313, 314, 315, 316, 317, 318, 319, 320, 321, 322, 323, 324, 325, 326, 327, 328, 329, 330, 331, 332, 333, 334, 335, 336, 337, 338, 339, 340, 341, 342, 343, 344, 345, 346, 347, 348, 349, 350, 351, 352, 353, 354, 355, 356, 357, 358, 359, 360, 361, 362, 363, 364, 365, 366, 367, 368, 369, 370, 371, 372, 373, 374, 375, 376, 377, 378, 379, 380, 381, 382, 383, 384, 385, 386, 387, 388, 389, 390, 391, 392, 393, 394, 395, 396, 397, 398, 399, 400, 401, 402, 403, 404, 405, 406, 407, 408, 409, 410, 411, 412, 413, 414, 415, 416, 417, 418, 419, 420, 421, 422, 423, 424, 425, 426, 427, 428, 429, 430, 431, 432, 433, 434, 435, 436, 437],
      "AcquisitionTime": ["103111.475000", "103113.475000", "103115.475000", "103117.475000", "103119.475000", "103121.475000", "103123.475000", "103125.475000", "103127.475000", "103129.475000", "103131.475000", "103133.475000", "103135.475000", "103137.475000", "103139.475000", "103141.475000", "103143.475000", "103145.475000", "103147.475000", "103149.475000", "103151.475000", "103153.475000", "103155.475000", "103157.475000", "103159.475000", "103201.475000", "103203.475000", "103205.475000", "103207.475000", "103209.475000", "103211.475000", "103213.475000", "103215.475000", "103217.475000", "103219.475000", "103221.475000", "103223.475000", "103225.475000", "103227.475000", "103229.475000", "103231.475000", "103233.475000", "103235.475000", "103237.475000", "103239.475000", "103241.475000", "103243.475000", "103245.475000", "103247.475000", "103249.475000", "103251.475000", "103253.475000", "103255.475000", "103257.475000", "103259.475000", "103301.475000", "103303.475000", "103305.475000", "103307.475000", "103309.475000", "103311.475000", "103313.475000", "103315.475000", "103317.475000", "103319.475000", "103321.475000", "103323.475000", "103325.475000", "103327.475000", "103329.475000", "103331.475000", "103333.475000", "103335.475000", "103337.475000", "103339.475000", "103341.475000", "103343.475000", "103345.475000", "103347.475000", "103349.475000", "103351.475000", "103353.475000", "103355.475000", "103357.475000", "103359.475000", "103401.475000", "103403.475000", "103405.475000", "103407.475000", "103409.475000", "103411.475000", "103413.475000", "103415.475000", "103417.475000", "103419.475000", "103421.475000", "103423.475000", "103425.475000", "103427.475000", "103429.475000", "103431.475000", "103433.475000", "103435.475000", "103437.475000", "103439.475000", "103441.475000", "103443.475000", "103445.475000", "103447.475000", "103449.475000", "103451.475000", "103453.475000", "103455.475000", "103457.475000", "103459.475000", "103501.475000", "103503.475000", "103505.475000", "103507.475000", "103509.475000", "103511.475000", "103513.475000", "103515.475000", "103517.475000", "103519.475000", "103521.475000", "103523.475000", "103525.475000", "103527.475000", "103529.475000", "103531.475000", "103533.475000", "103535.475000", "103537.475000", "103539.475000", "103541.475000", "103543.475000", "103545.475000", "103547.475000", "103549.475000", "103551.475000", "103553.475000", "103555.475000", "103557.475000", "103559.475000", "103601.475000", "103603.475000", "103605.475000", "103607.475000", "103609.475000", "103611.475000", "103613.475000", "103615.475000", "103617.475000", "103619.475000", "103621.475000", "103623.475000", "103625.475000", "103627.475000", "103629.475000", "103631.475000", "103633.475000", "103635.475000", "103637.475000", "103639.475000", "103641.475000", "103643.475000", "103645.475000", "103647.475000", "103649.475000", "103651.475000", "103653.475000", "103655.475000", "103657.475000", "103659.475000", "103701.475000", "103703.475000", "103705.475000", "103707.475000", "103709.475000", "103711.475000", "103713.475000", "103715.475000", "103717.475000", "103719.475000", "103721.475000", "103723.475000", "103725.475000", "103727.475000", "103729.475000", "103731.475000", "103733.475000", "103735.475000", "103737.475000", "103739.475000", "103741.475000", "103743.475000", "103745.475000", "103747.475000", "103749.475000", "103751.475000", "103753.475000", "103755.475000", "103757.475000", "103759.475000", "103801.475000", "103803.475000", "103805.475000", "103807.475000", "103809.475000", "103811.475000", "103813.475000", "103815.475000", "103817.475000", "103819.475000", "103821.475000", "103823.475000", "103825.475000", "103827.475000", "103829.475000", "103831.475000", "103833.475000", "103835.475000", "103837.475000", "103839.475000", "103841.475000", "103843.475000", "103845.475000", "103847.475000", "103849.475000", "103851.475000", "103853.475000", "103855.475000", "103857.475000", "103859.475000", "103901.475000", "103903.475000", "103905.475000", "103907.475000", "103909.475000", "103911.475000", "103913.475000", "103915.475000", "103917.475000", "103919.475000", "103921.475000", "103923.475000", "103925.475000", "103927.475000", "103929.475000", "103931.475000", "103933.475000", "103935.475000", "103937.475000", "103939.475000", "103941.475000", "103943.475000", "103945.475000", "103947.475000", "103949.475000", "103951.475000", "103953.475000", "103955.475000", "103957.475000", "103959.475000", "104001.475000", "104003.475000", "104005.475000", "104007.475000", "104009.475000", "104011.475000", "104013.475000", "104015.475000", "104017.475000", "104019.475000", "104021.475000", "104023.475000", "104025.475000", "104027.475000", "104029.475000", "104031.475000", "104033.475000", "104035.475000", "104037.475000", "104039.475000", "104041.475000", "104043.475000", "104045.475000", "104047.475000", "104049.475000", "104051.475000", "104053.475000", "104055.475000", "104057.475000", "104059.475000", "104101.475000", "104103.475000", "104105.475000", "104107.475000", "104109.475000", "104111.475000", "104113.475000", "104115.475000", "104117.475000", "104119.475000", "104121.475000", "104123.475000", "104125.475000", "104127.475000", "104129.475000", "104131.475000", "104133.475000", "104135.475000", "104137.475000", "104139.475000", "104141.475000", "104143.475000", "104145.475000", "104147.475000", "104149.475000", "104151.475000", "104153.475000", "104155.475000", "104157.475000", "104159.475000", "104201.475000", "104203.475000", "104205.475000", "104207.475000", "104209.475000", "104211.475000", "104213.475000", "104215.475000", "104217.475000", "104219.475000", "104221.475000", "104223.475000", "104225.475000", "104227.475000", "104229.475000", "104231.475000", "104233.475000", "104235.475000", "104237.475000", "104239.475000", "104241.475000", "104243.475000", "104245.475000", "104247.475000", "104249.475000", "104251.475000", "104253.475000", "104255.475000", "104257.475000", "104259.475000", "104301.475000", "104303.475000", "104305.475000", "104307.475000", "104309.475000", "104311.475000", "104313.475000", "104315.475000", "104317.475000", "104319.475000", "104321.475000", "104323.475000", "104325.475000", "104327.475000", "104329.475000", "104331.475000", "104333.475000", "104335.475000", "104337.475000", "104339.475000", "104341.475000", "104343.475000", "104345.475000", "104347.475000", "104349.475000", "104351.475000", "104353.475000", "104355.475000", "104357.475000", "104359.475000", "104401.475000", "104403.475000", "104405.475000", "104407.475000", "104409.475000", "104411.475000", "104413.475000", "104415.475000", "104417.475000", "104419.475000", "104421.475000", "104423.475000", "104425.475000", "104427.475000", "104429.475000", "104431.475000", "104433.475000", "104435.475000", "104437.475000", "104439.475000", "104441.475000", "104443.475000", "104445.475000", "104447.475000", "104449.475000", "104451.475000", "104453.475000", "104455.475000", "104457.475000", "104459.475000", "104501.475000", "104503.475000", "104505.475000", "104507.475000", "104509.475000", "104511.475000", "104513.475000", "104515.475000", "104517.475000", "104519.475000", "104521.475000", "104523.475000", "104525.475000", "104527.475000", "104529.475000", "104531.475000", "104533.475000", "104535.475000", "104537.475000", "104539.475000", "104541.475000", "104543.475000"],
      "ContentTime": ["103200.646000", "103200.649000", "103200.652000", "103200.655000", "103200.658000", "103200.660000", "103200.663000", "103200.666000", "103200.668000", "103200.671000", "103200.674000", "103200.676000", "103200.679000", "103200.682000", "103200.689000", "103200.692000", "103200.701000", "103200.703000", "103200.706000", "103200.709000", "103200.711000", "103200.714000", "103200.717000", "103200.720000", "103240.640000", "103240.643000", "103240.645000", "103240.648000", "103240.651000", "103240.653000", "103240.656000", "103240.659000", "103240.661000", "103240.664000", "103240.667000", "103240.669000", "103240.672000", "103240.675000", "103240.677000", "103240.680000", "103240.682000", "103240.685000", "103240.688000", "103240.690000", "103320.641000", "103320.643000", "103320.646000", "103320.649000", "103320.652000", "103320.654000", "103320.657000", "103320.672000", "103320.674000", "103320.677000", "103320.680000", "103320.682000", "103320.685000", "103320.694000", "103320.697000", "103320.699000", "103320.702000", "103320.705000", "103320.707000", "103320.710000", "103400.641000", "103400.644000", "103400.646000", "103400.649000", "103400.652000", "103400.654000", "103400.657000", "103400.660000", "103400.662000", "103400.665000", "103400.668000", "103400.670000", "103400.673000", "103400.675000", "103400.678000", "103400.681000", "103400.683000", "103400.686000", "103400.689000", "103400.691000", "103440.640000", "103440.643000", "103440.645000", "103440.648000", "103440.651000", "103440.653000", "103440.656000", "103440.659000", "103440.661000", "103440.664000", "103440.666000", "103440.669000", "103440.672000", "103440.674000", "103440.677000", "103440.680000", "103440.682000", "103440.685000", "103440.688000", "103440.691000", "103520.641000", "103520.643000", "103520.646000", "103520.649000", "103520.651000", "103520.654000", "103520.657000", "103520.659000", "103520.662000", "103520.665000", "103520.667000", "103520.670000", "103520.673000", "103520.675000", "103520.678000", "103520.681000", "103520.683000", "103520.686000", "103520.689000", "103520.691000", "103540.641000", "103540.644000", "103540.646000", "103540.649000", "103540.652000", "103540.655000", "103540.657000", "103540.660000", "103540.663000", "103540.665000", "103620.641000", "103620.644000", "103620.646000", "103620.649000", "103620.652000", "103620.654000", "103620.657000", "103620.660000", "103620.662000", "103620.665000", "103620.668000", "103620.670000", "103620.673000", "103620.676000", "103620.678000", "103620.681000", "103620.684000", "103620.686000", "103620.689000", "103620.692000", "103700.640000", "103700.643000", "103700.645000", "103700.648000", "103700.651000", "103700.654000", "103700.656000", "103700.659000", "103700.661000", "103700.664000", "103700.667000", "103700.669000", "103700.672000", "103700.675000", "103700.677000", "103700.680000", "103700.683000", "103700.685000", "103700.688000", "103700.691000", "103740.641000", "103740.644000", "103740.646000", "103740.649000", "103740.652000", "103740.654000", "103740.657000", "103740.660000", "103740.662000", "103740.665000", "103740.668000", "103740.670000", "103740.673000", "103740.676000", "103740.678000", "103740.681000", "103740.684000", "103740.686000", "103740.689000", "103740.692000", "103820.641000", "103820.644000", "103820.646000", "103820.649000", "103820.652000", "103820.654000", "103820.657000", "103820.660000", "103820.662000", "103820.665000", "103820.668000", "103820.670000", "103820.673000", "103820.676000", "103820.678000", "103820.681000", "103820.684000", "103820.686000", "103820.689000", "103820.692000", "103900.641000", "103900.644000", "103900.646000", "103900.649000", "103900.652000", "103900.654000", "103900.657000", "103900.660000", "103900.662000", "103900.665000", "103900.668000", "103900.671000", "103900.673000", "103900.676000", "103900.679000", "103900.681000", "103900.684000", "103900.687000", "103900.689000", "103900.692000", "103940.641000", "103940.644000", "103940.646000", "103940.649000", "103940.652000", "103940.654000", "103940.657000", "103940.660000", "103940.662000", "103940.665000", "103940.668000", "103940.670000", "103940.673000", "103940.676000", "103940.678000", "103940.681000", "103940.684000", "103940.686000", "103940.689000", "103940.692000", "104020.641000", "104020.644000", "104020.646000", "104020.649000", "104020.652000", "104020.655000", "104020.657000", "104020.660000", "104020.663000", "104020.665000", "104020.668000", "104020.671000", "104020.673000", "104020.676000", "104020.679000", "104020.681000", "104020.684000", "104020.687000", "104020.689000", "104020.692000", "104100.641000", "104100.644000", "104100.647000", "104100.649000", "104100.652000", "104100.655000", "104100.657000", "104100.660000", "104100.662000", "104100.665000", "104100.668000", "104100.671000", "104100.673000", "104100.676000", "104100.679000", "104100.701000", "104100.703000", "104100.706000", "104100.709000", "104100.711000", "104140.640000", "104140.643000", "104140.645000", "104140.648000", "104140.651000", "104140.653000", "104140.656000", "104140.659000", "104140.661000", "104140.664000", "104140.667000", "104140.669000", "104140.672000", "104140.675000", "104140.677000", "104140.680000", "104140.683000", "104140.685000", "104140.688000", "104140.691000", "104220.641000", "104220.644000", "104220.646000", "104220.649000", "104220.652000", "104220.654000", "104220.657000", "104220.660000", "104220.662000", "104220.665000", "104220.668000", "104220.670000", "104220.673000", "104220.676000", "104220.679000", "104220.681000", "104220.684000", "104220.687000", "104220.689000", "104220.692000", "104300.641000", "104300.644000", "104300.646000", "104300.649000", "104300.652000", "104300.654000", "104300.657000", "104300.660000", "104300.662000", "104300.665000", "104300.668000", "104300.670000", "104300.673000", "104300.676000", "104300.678000", "104300.681000", "104300.684000", "104300.686000", "104300.689000", "104300.692000", "104340.641000", "104340.644000", "104340.646000", "104340.649000", "104340.652000", "104340.655000", "104340.657000", "104340.660000", "104340.663000", "104340.665000", "104340.668000", "104340.671000", "104340.673000", "104340.676000", "104340.679000", "104340.681000", "104340.684000", "104340.687000", "104340.689000", "104340.692000", "104420.641000", "104420.644000", "104420.646000", "104420.649000", "104420.652000", "104420.654000", "104420.657000", "104420.660000", "104420.662000", "104420.665000", "104420.668000", "104420.670000", "104420.673000", "104420.676000", "104420.678000", "104420.681000", "104420.684000", "104420.686000", "104420.689000", "104420.692000", "104500.641000", "104500.644000", "104500.646000", "104500.649000", "104500.652000", "104500.654000", "104500.657000", "104500.660000", "104500.662000", "104500.665000", "104500.668000", "104500.670000", "104500.673000", "104500.676000", "104500.678000", "104500.681000", "104500.684000", "104500.687000", "104500.689000", "104500.692000", "104540.641000", "104540.644000", "104540.647000", "104540.649000", "104540.652000", "104540.655000", "104540.657000", "104540.660000", "104540.663000", "104540.666000", "104540.668000", "104540.671000", "104540.674000", "104540.677000", "104540.679000", "104540.682000", "104540.685000", "104540.687000", "104540.690000", "104540.693000", "104545.507000", "104545.510000", "104545.513000"],
      "DataSetTrailingPadding": [
        "\u0000\u0000\u0000\u0000\u0000\u0000\u0000\u0000\u0000\u0000\u0000\u0000\u0000\u0000\u0000\u0000\u0000\u0000\u0000\u0000\u0000\u0000\u0000\u0000\u0000\u0000\u0000\u0000\u0000\u0000\u0000\u0000\u0000\u0000\u0000\u0000\u0000\u0000\u0000\u0000\u0000\u0000\u0000\u0000\u0000\u0000\u0000\u0000\u0000\u0000\u0000\u0000\u0000\u0000\u0000\u0000\u0000\u0000\u0000\u0000\u0000\u0000\u0000\u0000\u0000\u0000\u0000\u0000\u0000\u0000\u0000\u0000\u0000\u0000\u0000\u0000\u0000\u0000\u0000\u0000\u0000\u0000\u0000\u0000\u0000\u0000\u0000\u0000\u0000\u0000\u0000\u0000\u0000\u0000\u0000\u0000\u0000\u0000\u0000\u0000\u0000\u0000\u0000\u0000\u0000\u0000\u0000\u0000\u0000\u0000\u0000\u0000\u0000\u0000\u0000\u0000\u0000\u0000\u0000\u0000\u0000\u0000\u0000\u0000\u0000\u0000\u0000\u0000\u0000\u0000\u0000\u0000\u0000\u0000\u0000\u0000\u0000\u0000\u0000\u0000\u0000\u0000\u0000\u0000\u0000\u0000\u0000\u0000\u0000\u0000\u0000\u0000\u0000\u0000\u0000\u0000\u0000\u0000\u0000\u0000\u0000\u0000\u0000\u0000\u0000\u0000\u0000\u0000\u0000\u0000\u0000\u0000\u0000\u0000\u0000\u0000\u0000\u0000\u0000\u0000\u0000\u0000\u0000\u0000\u0000\u0000\u0000\u0000\u0000\u0000\u0000\u0000\u0000\u0000\u0000\u0000\u0000\u0000\u0000\u0000\u0000\u0000\u0000\u0000\u0000\u0000\u0000\u0000\u0000\u0000\u0000\u0000\u0000\u0000\u0000\u0000\u0000\u0000\u0000\u0000\u0000\u0000\u0000\u0000\u0000\u0000\u0000\u0000\u0000\u0000\u0000\u0000\u0000\u0000\u0000\u0000\u0000\u0000\u0000\u0000",
        "\u0000\u0000\u0000\u0000\u0000\u0000\u0000\u0000\u0000\u0000\u0000\u0000\u0000\u0000\u0000\u0000\u0000\u0000\u0000\u0000\u0000\u0000\u0000\u0000\u0000\u0000\u0000\u0000\u0000\u0000\u0000\u0000\u0000\u0000\u0000\u0000\u0000\u0000\u0000\u0000\u0000\u0000\u0000\u0000\u0000\u0000\u0000\u0000\u0000\u0000\u0000\u0000\u0000\u0000\u0000\u0000\u0000\u0000\u0000\u0000\u0000\u0000\u0000\u0000\u0000\u0000\u0000\u0000\u0000\u0000\u0000\u0000\u0000\u0000\u0000\u0000\u0000\u0000\u0000\u0000\u0000\u0000\u0000\u0000\u0000\u0000\u0000\u0000\u0000\u0000\u0000\u0000\u0000\u0000\u0000\u0000\u0000\u0000\u0000\u0000\u0000\u0000\u0000\u0000\u0000\u0000\u0000\u0000\u0000\u0000\u0000\u0000\u0000\u0000\u0000\u0000\u0000\u0000\u0000\u0000\u0000\u0000\u0000\u0000\u0000\u0000\u0000\u0000\u0000\u0000\u0000\u0000\u0000\u0000\u0000\u0000\u0000\u0000\u0000\u0000\u0000\u0000\u0000\u0000\u0000\u0000\u0000\u0000\u0000\u0000\u0000\u0000\u0000\u0000\u0000\u0000\u0000\u0000\u0000\u0000\u0000\u0000\u0000\u0000\u0000\u0000\u0000\u0000\u0000\u0000\u0000\u0000\u0000\u0000\u0000\u0000\u0000\u0000\u0000\u0000\u0000\u0000\u0000\u0000\u0000\u0000\u0000\u0000\u0000\u0000\u0000\u0000\u0000\u0000\u0000\u0000\u0000\u0000\u0000\u0000\u0000\u0000\u0000\u0000\u0000\u0000\u0000\u0000\u0000\u0000\u0000\u0000\u0000\u0000\u0000\u0000\u0000\u0000\u0000\u0000\u0000\u0000\u0000\u0000\u0000\u0000\u0000\u0000\u0000\u0000\u0000\u0000\u0000\u0000\u0000\u0000\u0000\u0000",
        "\u0000\u0000\u0000\u0000\u0000\u0000\u0000\u0000\u0000\u0000\u0000\u0000\u0000\u0000\u0000\u0000\u0000\u0000\u0000\u0000\u0000\u0000\u0000\u0000\u0000\u0000\u0000\u0000\u0000\u0000\u0000\u0000\u0000\u0000\u0000\u0000\u0000\u0000\u0000\u0000\u0000\u0000\u0000\u0000\u0000\u0000\u0000\u0000\u0000\u0000\u0000\u0000\u0000\u0000\u0000\u0000\u0000\u0000\u0000\u0000\u0000\u0000\u0000\u0000\u0000\u0000\u0000\u0000\u0000\u0000\u0000\u0000\u0000\u0000\u0000\u0000\u0000\u0000\u0000\u0000\u0000\u0000\u0000\u0000\u0000\u0000\u0000\u0000\u0000\u0000\u0000\u0000\u0000\u0000\u0000\u0000\u0000\u0000\u0000\u0000\u0000\u0000\u0000\u0000\u0000\u0000\u0000\u0000\u0000\u0000\u0000\u0000\u0000\u0000\u0000\u0000\u0000\u0000\u0000\u0000\u0000\u0000\u0000\u0000\u0000\u0000\u0000\u0000\u0000\u0000\u0000\u0000\u0000\u0000\u0000\u0000\u0000\u0000\u0000\u0000\u0000\u0000\u0000\u0000\u0000\u0000\u0000\u0000\u0000\u0000\u0000\u0000\u0000\u0000\u0000\u0000\u0000\u0000\u0000\u0000\u0000\u0000\u0000\u0000\u0000\u0000\u0000\u0000\u0000\u0000\u0000\u0000\u0000\u0000\u0000\u0000\u0000\u0000\u0000\u0000\u0000\u0000\u0000\u0000\u0000\u0000\u0000\u0000\u0000\u0000\u0000\u0000\u0000\u0000\u0000\u0000\u0000\u0000\u0000\u0000\u0000\u0000\u0000\u0000\u0000\u0000\u0000\u0000\u0000\u0000\u0000\u0000\u0000\u0000\u0000\u0000\u0000\u0000\u0000\u0000\u0000\u0000\u0000\u0000\u0000\u0000\u0000\u0000\u0000\u0000\u0000\u0000\u0000\u0000\u0000\u0000\u0000\u0000",
        "\u0000\u0000\u0000\u0000\u0000\u0000\u0000\u0000\u0000\u0000\u0000\u0000\u0000\u0000\u0000\u0000\u0000\u0000\u0000\u0000\u0000\u0000\u0000\u0000\u0000\u0000\u0000\u0000\u0000\u0000\u0000\u0000\u0000\u0000\u0000\u0000\u0000\u0000\u0000\u0000\u0000\u0000\u0000\u0000\u0000\u0000\u0000\u0000\u0000\u0000\u0000\u0000\u0000\u0000\u0000\u0000\u0000\u0000\u0000\u0000\u0000\u0000\u0000\u0000\u0000\u0000\u0000\u0000\u0000\u0000\u0000\u0000\u0000\u0000\u0000\u0000\u0000\u0000\u0000\u0000\u0000\u0000\u0000\u0000\u0000\u0000\u0000\u0000\u0000\u0000\u0000\u0000\u0000\u0000\u0000\u0000\u0000\u0000\u0000\u0000\u0000\u0000\u0000\u0000\u0000\u0000\u0000\u0000\u0000\u0000\u0000\u0000\u0000\u0000\u0000\u0000\u0000\u0000\u0000\u0000\u0000\u0000\u0000\u0000\u0000\u0000\u0000\u0000\u0000\u0000\u0000\u0000\u0000\u0000\u0000\u0000\u0000\u0000\u0000\u0000\u0000\u0000\u0000\u0000\u0000\u0000\u0000\u0000\u0000\u0000\u0000\u0000\u0000\u0000\u0000\u0000\u0000\u0000\u0000\u0000\u0000\u0000\u0000\u0000\u0000\u0000\u0000\u0000\u0000\u0000\u0000\u0000\u0000\u0000\u0000\u0000\u0000\u0000\u0000\u0000\u0000\u0000\u0000\u0000\u0000\u0000\u0000\u0000\u0000\u0000\u0000\u0000\u0000\u0000\u0000\u0000\u0000\u0000\u0000\u0000\u0000\u0000\u0000\u0000\u0000\u0000\u0000\u0000\u0000\u0000\u0000\u0000\u0000\u0000\u0000\u0000\u0000\u0000\u0000\u0000\u0000\u0000\u0000\u0000\u0000\u0000\u0000\u0000\u0000\u0000\u0000\u0000\u0000\u0000\u0000\u0000\u0000\u0000",
        "\u0000\u0000\u0000\u0000\u0000\u0000\u0000\u0000\u0000\u0000\u0000\u0000\u0000\u0000\u0000\u0000\u0000\u0000\u0000\u0000\u0000\u0000\u0000\u0000\u0000\u0000\u0000\u0000\u0000\u0000\u0000\u0000\u0000\u0000\u0000\u0000\u0000\u0000\u0000\u0000\u0000\u0000\u0000\u0000\u0000\u0000\u0000\u0000\u0000\u0000\u0000\u0000\u0000\u0000\u0000\u0000\u0000\u0000\u0000\u0000\u0000\u0000\u0000\u0000\u0000\u0000\u0000\u0000\u0000\u0000\u0000\u0000\u0000\u0000\u0000\u0000\u0000\u0000\u0000\u0000\u0000\u0000\u0000\u0000\u0000\u0000\u0000\u0000\u0000\u0000\u0000\u0000\u0000\u0000\u0000\u0000\u0000\u0000\u0000\u0000\u0000\u0000\u0000\u0000\u0000\u0000\u0000\u0000\u0000\u0000\u0000\u0000\u0000\u0000\u0000\u0000\u0000\u0000\u0000\u0000\u0000\u0000\u0000\u0000\u0000\u0000\u0000\u0000\u0000\u0000\u0000\u0000\u0000\u0000\u0000\u0000\u0000\u0000\u0000\u0000\u0000\u0000\u0000\u0000\u0000\u0000\u0000\u0000\u0000\u0000\u0000\u0000\u0000\u0000\u0000\u0000\u0000\u0000\u0000\u0000\u0000\u0000\u0000\u0000\u0000\u0000\u0000\u0000\u0000\u0000\u0000\u0000\u0000\u0000\u0000\u0000\u0000\u0000\u0000\u0000\u0000\u0000\u0000\u0000\u0000\u0000\u0000\u0000\u0000\u0000\u0000\u0000\u0000\u0000\u0000\u0000\u0000\u0000\u0000\u0000\u0000\u0000\u0000\u0000\u0000\u0000\u0000\u0000\u0000\u0000\u0000\u0000\u0000\u0000\u0000\u0000\u0000\u0000\u0000\u0000\u0000\u0000\u0000\u0000\u0000\u0000\u0000\u0000\u0000\u0000\u0000\u0000\u0000\u0000\u0000\u0000",
