{
  "AcquisitionMatrixPE": 70,
  "AcquisitionNumber": 1,
  "AcquisitionTime": "10:15:19.977500",
  "BandwidthPerPixelPhaseEncode": 51.948,
  "BaseResolution": 70,
  "BodyPartExamined": "HEAD",
  "CoilCombinationMethod": "Sum of Squares",
  "ConsistencyInfo": "N4_VE11C_LATEST_20160120",
  "ConversionSoftware": "dcm2niix",
  "ConversionSoftwareVersion": "v1.0.20220720",
  "DerivedVendorReportedEchoSpacing": 0.000550001,
  "DeviceSerialNumber": "66061",
  "DwellTime": 3.3e-06,
  "EchoTime": 0.022,
  "EchoTrainLength": 35,
  "EffectiveEchoSpacing": 0.000275,
  "FlipAngle": 90,
  "HeudiconvVersion": "1.1.1",
  "ImageOrientationPatientDICOM": [0.999965, 0.00252024, 0.00800624, -0.00122165, 0.987401, -0.158236],
  "ImageOrientationText": "Tra>Cor(-9.1)>Sag(0.5)",
  "ImageType": [
    "ORIGINAL",
    "PRIMARY",
    "M",
    "ND",
    "NORM",
    "MOSAIC"
],
  "ImagingFrequency": 123.254,
  "InPlanePhaseEncodingDirectionDICOM": "COL",
  "InstitutionAddress": "Street StreetNo,City/1c4204/,District,KR,ZIP",
  "InstitutionName": "SKKU",
  "InstitutionalDepartmentName": "Department",
  "MRAcquisitionType": "2D",
  "MagneticFieldStrength": 3,
  "Manufacturer": "Siemens",
  "ManufacturersModelName": "Prisma",
  "MatrixCoilMode": "GRAPPA",
  "Modality": "MR",
  "NonlinearGradientCorrection": false,
  "ParallelReductionFactorInPlane": 2,
  "PartialFourier": 1,
  "PatientPosition": "HFS",
  "PercentPhaseFOV": 100,
  "PercentSampling": 100,
  "PhaseEncodingDirection": "j-",
  "PhaseEncodingSteps": 70,
  "PhaseResolution": 1,
  "PixelBandwidth": 2165,
  "ProcedureStepDescription": "Head^PI:Others",
  "ProtocolName": "BOLD_ep2d_3x3x3_dimension1",
  "PulseSequenceDetails": "%SiemensSeq%\\ep2d_pace",
  "ReceiveCoilActiveElements": "HC1-7",
  "ReceiveCoilName": "HeadNeck_64",
  "ReconMatrixPE": 70,
  "RefLinesPE": 24,
  "RepetitionTime": 2,
  "SAR": 0.123853,
  "ScanOptions": "FS",
  "ScanningSequence": "EP",
  "SequenceName": "*epfid2d1_70",
  "SequenceVariant": "SK",
  "SeriesDescription": "BOLD_ep2d_3x3x3_dimension1",
  "SeriesNumber": 5,
  "ShimSetting": [5051, 3724, 4459, 415, -49, 40, -42, 31],
  "SliceThickness": 3,
  "SliceTiming": [0.99, 0, 1.0375, 0.0475, 1.085, 0.095, 1.13, 0.14, 1.1775, 0.1875, 1.225, 0.235, 1.2725, 0.2825, 1.32, 0.33, 1.3675, 0.3775, 1.415, 0.425, 1.46, 0.47, 1.5075, 0.5175, 1.555, 0.565, 1.6025, 0.6125, 1.65, 0.66, 1.6975, 0.7075, 1.745, 0.755, 1.79, 0.8, 1.8375, 0.8475, 1.885, 0.895, 1.9325, 0.9425],
  "SoftwareVersions": "syngo MR E11",
  "SpacingBetweenSlices": 3,
  "StationName": "AWP66061",
  "TaskName": "dimension",
  "TotalReadoutTime": 0.018975,
  "TxRefAmp": 222.403,
  "dcmmeta_affine": [
    [-2.999894380569458, -0.003664958057925105, 0.02491249144077301, 105.30980682373047],
    [-0.007560720667243004, 2.9622015953063965, -0.47466224431991577, -95.55081939697266],
    [0.024018732830882072, 0.47470828890800476, 2.962106704711914, -61.95520782470703],
    [0.0, 0.0, 0.0, 1.0]
],
  "dcmmeta_reorient_transform": [
    [0.0, -1.0, 0.0, 69.0],
    [1.0, 0.0, 0.0, 0.0],
    [0.0, 0.0, -1.0, 41.0],
    [0.0, 0.0, 0.0, 1.0]
],
  "dcmmeta_shape": [70, 70, 42, 437],
  "dcmmeta_slice_dim": 2,
  "dcmmeta_version": 0.6,
  "global": {
    "const": {
      "AcquisitionMatrix": [70, 0, 0, 70],
      "AngioFlag": "N",
      "BitsAllocated": 16,
      "BitsStored": 12,
      "BodyPartExamined": "HEAD",
      "Columns": 490,
      "EchoNumbers": 1,
      "EchoTime": 22.0,
      "EchoTrainLength": 35,
      "FlipAngle": 90.0,
      "HighBit": 11,
      "ImageOrientationPatient": [0.99996477359851, 0.00252024016387, 0.00800624453724, -0.0012216526813, 0.98740054972606, -0.1582360956464],
      "ImagePositionPatient": [-735.2865060022, -713.03003778651, 186.89084150514],
      "ImageType": [
        "ORIGINAL",
        "PRIMARY",
        "M",
        "ND",
        "NORM",
        "MOSAIC"
],
      "ImagedNucleus": "1H",
      "ImagingFrequency": 123.254019,
      "InPlanePhaseEncodingDirection": "COL",
      "MRAcquisitionType": "2D",
      "MagneticFieldStrength": 3.0,
      "Manufacturer": "SIEMENS",
      "ManufacturerModelName": "Prisma",
      "Modality": "MR",
      "NumberOfAverages": 1.0,
      "NumberOfPhaseEncodingSteps": 70,
      "PercentPhaseFieldOfView": 100.0,
      "PercentSampling": 100.0,
      "PerformedProcedureStepStartTime": "100132.476000",
      "PhotometricInterpretation": "MONOCHROME2",
      "PixelBandwidth": 2165.0,
      "PixelRepresentation": 0,
      "PixelSpacing": [3.0, 3.0],
      "ProtocolName": "BOLD_ep2d_3x3x3_dimension1",
      "RepetitionTime": 2000.0,
      "Rows": 490,
      "SAR": 0.12385291808652,
      "SamplesPerPixel": 1,
      "ScanOptions": "FS",
      "ScanningSequence": "EP",
      "SequenceName": "*epfid2d1_70",
      "SequenceVariant": "SK",
      "SeriesDescription": "BOLD_ep2d_3x3x3_dimension1",
      "SeriesNumber": 5,
      "SeriesTime": "101550.659000",
      "SliceLocation": 77.819992942243,
      "SliceThickness": 3.0,
      "SmallestImagePixelValue": 0,
      "SoftwareVersions": "syngo MR E11",
      "SpacingBetweenSlices": 3.0000001187653,
      "SpecificCharacterSet": "ISO_IR 100",
      "StudyID": "1",
      "StudyTime": "100132.423000",
      "TransmitCoilName": "Body",
      "VariableFlipAngleFlag": "N",
      "WindowCenterWidthExplanation": "Algo1",
      "dBdt": 0.0},
    "slices": {}
  },
  "time": {
    "samples": {
      "AcquisitionNumber": [1, 2, 3, 4, 5, 6, 7, 8, 9, 10, 11, 12, 13, 14, 15, 16, 17, 18, 19, 20, 21, 22, 23, 24, 25, 26, 27, 28, 29, 30, 31, 32, 33, 34, 35, 36, 37, 38, 39, 40, 41, 42, 43, 44, 45, 46, 47, 48, 49, 50, 51, 52, 53, 54, 55, 56, 57, 58, 59, 60, 61, 62, 63, 64, 65, 66, 67, 68, 69, 70, 71, 72, 73, 74, 75, 76, 77, 78, 79, 80, 81, 82, 83, 84, 85, 86, 87, 88, 89, 90, 91, 92, 93, 94, 95, 96, 97, 98, 99, 100, 101, 102, 103, 104, 105, 106, 107, 108, 109, 110, 111, 112, 113, 114, 115, 116, 117, 118, 119, 120, 121, 122, 123, 124, 125, 126, 127, 128, 129, 130, 131, 132, 133, 134, 135, 136, 137, 138, 139, 140, 141, 142, 143, 144, 145, 146, 147, 148, 149, 150, 151, 152, 153, 154, 155, 156, 157, 158, 159, 160, 161, 162, 163, 164, 165, 166, 167, 168, 169, 170, 171, 172, 173, 174, 175, 176, 177, 178, 179, 180, 181, 182, 183, 184, 185, 186, 187, 188, 189, 190, 191, 192, 193, 194, 195, 196, 197, 198, 199, 200, 201, 202, 203, 204, 205, 206, 207, 208, 209, 210, 211, 212, 213, 214, 215, 216, 217, 218, 219, 220, 221, 222, 223, 224, 225, 226, 227, 228, 229, 230, 231, 232, 233, 234, 235, 236, 237, 238, 239, 240, 241, 242, 243, 244, 245, 246, 247, 248, 249, 250, 251, 252, 253, 254, 255, 256, 257, 258, 259, 260, 261, 262, 263, 264, 265, 266, 267, 268, 269, 270, 271, 272, 273, 274, 275, 276, 277, 278, 279, 280, 281, 282, 283, 284, 285, 286, 287, 288, 289, 290, 291, 292, 293, 294, 295, 296, 297, 298, 299, 300, 301, 302, 303, 304, 305, 306, 307, 308, 309, 310, 311, 312, 313, 314, 315, 316, 317, 318, 319, 320, 321, 322, 323, 324, 325, 326, 327, 328, 329, 330, 331, 332, 333, 334, 335, 336, 337, 338, 339, 340, 341, 342, 343, 344, 345, 346, 347, 348, 349, 350, 351, 352, 353, 354, 355, 356, 357, 358, 359, 360, 361, 362, 363, 364, 365, 366, 367, 368, 369, 370, 371, 372, 373, 374, 375, 376, 377, 378, 379, 380, 381, 382, 383, 384, 385, 386, 387, 388, 389, 390, 391, 392, 393, 394, 395, 396, 397, 398, 399, 400, 401, 402, 403, 404, 405, 406, 407, 408, 409, 410, 411, 412, 413, 414, 415, 416, 417, 418, 419, 420, 421, 422, 423, 424, 425, 426, 427, 428, 429, 430, 431, 432, 433, 434, 435, 436, 437],
      "AcquisitionTime": ["101519.977500", "101521.977500", "101523.977500", "101525.977500", "101527.977500", "101529.977500", "101531.977500", "101533.977500", "101535.977500", "101537.977500", "101539.977500", "101541.977500", "101543.977500", "101545.977500", "101547.977500", "101549.977500", "101551.977500", "101553.977500", "101555.977500", "101557.977500", "101559.977500", "101601.977500", "101603.977500", "101605.977500", "101607.977500", "101609.977500", "101611.977500", "101613.977500", "101615.977500", "101617.977500", "101619.977500", "101621.977500", "101623.977500", "101625.977500", "101627.977500", "101629.977500", "101631.977500", "101633.977500", "101635.977500", "101637.977500", "101639.977500", "101641.977500", "101643.977500", "101645.977500", "101647.977500", "101649.977500", "101651.977500", "101653.977500", "101655.977500", "101657.977500", "101659.977500", "101701.977500", "101703.977500", "101705.977500", "101707.977500", "101709.977500", "101711.977500", "101713.977500", "101715.977500", "101717.977500", "101719.977500", "101721.977500", "101723.977500", "101725.977500", "101727.977500", "101729.977500", "101731.977500", "101733.977500", "101735.977500", "101737.977500", "101739.977500", "101741.977500", "101743.977500", "101745.977500", "101747.977500", "101749.977500", "101751.977500", "101753.977500", "101755.977500", "101757.977500", "101759.977500", "101801.977500", "101803.977500", "101805.977500", "101807.977500", "101809.977500", "101811.977500", "101813.977500", "101815.977500", "101817.977500", "101819.977500", "101821.977500", "101823.977500", "101825.977500", "101827.977500", "101829.977500", "101831.977500", "101833.977500", "101835.977500", "101837.977500", "101839.977500", "101841.977500", "101843.977500", "101845.977500", "101847.977500", "101849.977500", "101851.977500", "101853.977500", "101855.977500", "101857.977500", "101859.977500", "101901.977500", "101903.977500", "101905.977500", "101907.977500", "101909.977500", "101911.977500", "101913.977500", "101915.977500", "101917.977500", "101919.977500", "101921.977500", "101923.977500", "101925.977500", "101927.977500", "101929.977500", "101931.977500", "101933.977500", "101935.977500", "101937.977500", "101939.977500", "101941.977500", "101943.977500", "101945.977500", "101947.977500", "101949.977500", "101951.977500", "101953.977500", "101955.977500", "101957.977500", "101959.977500", "102001.977500", "102003.977500", "102005.977500", "102007.977500", "102009.977500", "102011.977500", "102013.977500", "102015.977500", "102017.977500", "102019.977500", "102021.977500", "102023.977500", "102025.977500", "102027.977500", "102029.977500", "102031.977500", "102033.977500", "102035.977500", "102037.977500", "102039.977500", "102041.977500", "102043.977500", "102045.977500", "102047.977500", "102049.977500", "102051.977500", "102053.977500", "102055.977500", "102057.977500", "102059.977500", "102101.977500", "102103.977500", "102105.977500", "102107.977500", "102109.977500", "102111.977500", "102113.977500", "102115.977500", "102117.977500", "102119.977500", "102121.977500", "102123.977500", "102125.977500", "102127.977500", "102129.977500", "102131.977500", "102133.977500", "102135.977500", "102137.977500", "102139.977500", "102141.977500", "102143.977500", "102145.977500", "102147.977500", "102149.977500", "102151.977500", "102153.977500", "102155.977500", "102157.977500", "102159.977500", "102201.977500", "102203.977500", "102205.977500", "102207.977500", "102209.977500", "102211.977500", "102213.977500", "102215.977500", "102217.977500", "102219.977500", "102221.977500", "102223.977500", "102225.977500", "102227.977500", "102229.977500", "102231.977500", "102233.977500", "102235.977500", "102237.977500", "102239.977500", "102241.977500", "102243.977500", "102245.977500", "102247.977500", "102249.977500", "102251.977500", "102253.977500", "102255.977500", "102257.977500", "102259.977500", "102301.977500", "102303.977500", "102305.977500", "102307.977500", "102309.977500", "102311.977500", "102313.977500", "102315.977500", "102317.977500", "102319.977500", "102321.977500", "102323.977500", "102325.977500", "102327.977500", "102329.977500", "102331.977500", "102333.977500", "102335.977500", "102337.977500", "102339.977500", "102341.977500", "102343.977500", "102345.977500", "102347.977500", "102349.977500", "102351.977500", "102353.977500", "102355.977500", "102357.977500", "102359.977500", "102401.977500", "102403.977500", "102405.977500", "102407.977500", "102409.977500", "102411.977500", "102413.977500", "102415.977500", "102417.977500", "102419.977500", "102421.977500", "102423.977500", "102425.977500", "102427.977500", "102429.977500", "102431.977500", "102433.977500", "102435.977500", "102437.977500", "102439.977500", "102441.977500", "102443.977500", "102445.977500", "102447.977500", "102449.977500", "102451.977500", "102453.977500", "102455.977500", "102457.977500", "102459.977500", "102501.977500", "102503.977500", "102505.977500", "102507.977500", "102509.977500", "102511.977500", "102513.977500", "102515.977500", "102517.977500", "102519.977500", "102521.977500", "102523.977500", "102525.977500", "102527.977500", "102529.977500", "102531.977500", "102533.977500", "102535.977500", "102537.977500", "102539.977500", "102541.977500", "102543.977500", "102545.977500", "102547.977500", "102549.977500", "102551.977500", "102553.977500", "102555.977500", "102557.977500", "102559.977500", "102601.977500", "102603.977500", "102605.977500", "102607.977500", "102609.977500", "102611.977500", "102613.977500", "102615.977500", "102617.977500", "102619.977500", "102621.977500", "102623.977500", "102625.977500", "102627.977500", "102629.977500", "102631.977500", "102633.977500", "102635.977500", "102637.977500", "102639.977500", "102641.977500", "102643.977500", "102645.977500", "102647.977500", "102649.977500", "102651.977500", "102653.977500", "102655.977500", "102657.977500", "102659.977500", "102701.977500", "102703.977500", "102705.977500", "102707.977500", "102709.977500", "102711.977500", "102713.977500", "102715.977500", "102717.977500", "102719.977500", "102721.977500", "102723.977500", "102725.977500", "102727.977500", "102729.977500", "102731.977500", "102733.977500", "102735.977500", "102737.977500", "102739.977500", "102741.977500", "102743.977500", "102745.977500", "102747.977500", "102749.977500", "102751.977500", "102753.977500", "102755.977500", "102757.977500", "102759.977500", "102801.977500", "102803.977500", "102805.977500", "102807.977500", "102809.977500", "102811.977500", "102813.977500", "102815.977500", "102817.977500", "102819.977500", "102821.977500", "102823.977500", "102825.977500", "102827.977500", "102829.977500", "102831.977500", "102833.977500", "102835.977500", "102837.977500", "102839.977500", "102841.977500", "102843.977500", "102845.977500", "102847.977500", "102849.977500", "102851.977500", "102853.977500", "102855.977500", "102857.977500", "102859.977500", "102901.977500", "102903.977500", "102905.977500", "102907.977500", "102909.977500", "102911.977500", "102913.977500", "102915.977500", "102917.977500", "102919.977500", "102921.977500", "102923.977500", "102925.977500", "102927.977500", "102929.977500", "102931.977500", "102933.977500", "102935.977500", "102937.977500", "102939.977500", "102941.977500", "102943.977500", "102945.977500", "102947.977500", "102949.977500", "102951.977500"],
      "ContentTime": ["101550.663000", "101550.666000", "101550.669000", "101550.671000", "101550.674000", "101550.677000", "101550.679000", "101550.682000", "101550.684000", "101550.695000", "101550.705000", "101550.714000", "101550.716000", "101550.719000", "101550.722000", "101630.658000", "101630.661000", "101630.670000", "101630.673000", "101630.676000", "101630.678000", "101630.681000", "101630.684000", "101630.686000", "101630.689000", "101630.692000", "101630.694000", "101630.697000", "101630.699000", "101630.709000", "101630.711000", "101630.714000", "101630.716000", "101630.719000", "101630.722000", "101710.658000", "101710.661000", "101710.663000", "101710.666000", "101710.669000", "101710.671000", "101710.674000", "101710.677000", "101710.679000", "101710.682000", "101710.685000", "101710.687000", "101710.690000", "101710.693000", "101710.695000", "101710.698000", "101710.701000", "101710.703000", "101710.706000", "101710.709000", "101750.659000", "101750.662000", "101750.664000", "101750.667000", "101750.670000", "101750.672000", "101750.685000", "101750.688000", "101750.690000", "101750.693000", "101750.696000", "101750.698000", "101750.701000", "101750.718000", "101750.722000", "101750.724000", "101750.727000", "101750.730000", "101750.732000", "101750.735000", "101830.658000", "101830.660000", "101830.663000", "101830.666000", "101830.668000", "101830.671000", "101830.674000", "101830.676000", "101830.679000", "101830.682000", "101830.684000", "101830.687000", "101830.690000", "101830.692000", "101830.695000", "101830.698000", "101830.700000", "101830.703000", "101830.705000", "101830.708000", "101910.658000", "101910.661000", "101910.663000", "101910.666000", "101910.669000", "101910.671000", "101910.674000", "101910.677000", "101910.679000", "101910.682000", "101910.684000", "101910.687000", "101910.690000", "101910.692000", "101910.695000", "101910.698000", "101910.700000", "101910.703000", "101910.706000", "101910.708000", "101950.658000", "101950.660000", "101950.663000", "101950.666000", "101950.669000", "101950.671000", "101950.674000", "101950.676000", "101950.679000", "101950.682000", "101950.684000", "101950.687000", "101950.689000", "101950.699000", "101950.702000", "101950.705000", "101950.707000", "101950.710000", "101950.713000", "101950.716000", "102030.658000", "102030.661000", "102030.663000", "102030.666000", "102030.669000", "102030.671000", "102030.674000", "102030.676000", "102030.679000", "102030.682000", "102030.685000", "102030.687000", "102030.690000", "102030.693000", "102030.695000", "102030.698000", "102030.701000", "102030.703000", "102030.706000", "102030.709000", "102110.658000", "102110.661000", "102110.663000", "102110.666000", "102110.669000", "102110.671000", "102110.674000", "102110.677000", "102110.679000", "102110.682000", "102110.685000", "102110.687000", "102110.690000", "102110.693000", "102110.695000", "102110.698000", "102110.701000", "102110.703000", "102110.706000", "102110.709000", "102150.658000", "102150.661000", "102150.663000", "102150.666000", "102150.669000", "102150.671000", "102150.674000", "102150.677000", "102150.679000", "102150.682000", "102150.685000", "102150.687000", "102150.690000", "102150.693000", "102150.695000", "102150.698000", "102150.701000", "102150.703000", "102150.706000", "102150.709000", "102230.659000", "102230.662000", "102230.664000", "102230.667000", "102230.670000", "102230.672000", "102230.675000", "102230.677000", "102230.680000", "102230.683000", "102230.686000", "102230.688000", "102230.691000", "102230.693000", "102230.696000", "102230.699000", "102230.701000", "102230.704000", "102230.707000", "102230.710000", "102310.658000", "102310.660000", "102310.663000", "102310.666000", "102310.668000", "102310.671000", "102310.674000", "102310.677000", "102310.679000", "102310.682000", "102310.685000", "102310.687000", "102310.690000", "102310.692000", "102310.695000", "102310.698000", "102310.700000", "102310.703000", "102310.706000", "102310.709000", "102350.658000", "102350.661000", "102350.663000", "102350.666000", "102350.669000", "102350.671000", "102350.674000", "102350.677000", "102350.680000", "102350.682000", "102350.685000", "102350.688000", "102350.690000", "102350.693000", "102350.696000", "102350.698000", "102350.701000", "102350.704000", "102350.706000", "102350.710000", "102430.658000", "102430.661000", "102430.663000", "102430.666000", "102430.669000", "102430.671000", "102430.674000", "102430.677000", "102430.679000", "102430.682000", "102430.685000", "102430.687000", "102430.690000", "102430.692000", "102430.695000", "102430.698000", "102430.700000", "102430.703000", "102430.706000", "102430.709000", "102510.658000", "102510.661000", "102510.663000", "102510.666000", "102510.669000", "102510.671000", "102510.674000", "102510.677000", "102510.679000", "102510.682000", "102510.685000", "102510.687000", "102510.690000", "102510.693000", "102510.695000", "102510.698000", "102510.701000", "102510.704000", "102510.707000", "102510.709000", "102550.658000", "102550.661000", "102550.663000", "102550.666000", "102550.669000", "102550.671000", "102550.674000", "102550.677000", "102550.679000", "102550.682000", "102550.685000", "102550.706000", "102550.709000", "102550.712000", "102550.715000", "102550.717000", "102550.720000", "102550.723000", "102550.725000", "102550.728000", "102630.658000", "102630.661000", "102630.663000", "102630.666000", "102630.669000", "102630.671000", "102630.674000", "102630.677000", "102630.679000", "102630.682000", "102630.685000", "102630.687000", "102630.690000", "102630.693000", "102630.695000", "102630.698000", "102630.701000", "102630.704000", "102630.707000", "102630.709000", "102710.658000", "102710.661000", "102710.663000", "102710.666000", "102710.669000", "102710.671000", "102710.674000", "102710.677000", "102710.690000", "102710.692000", "102710.695000", "102710.698000", "102710.700000", "102710.703000", "102710.706000", "102710.709000", "102710.712000", "102710.714000", "102710.717000", "102710.719000", "102750.658000", "102750.661000", "102750.663000", "102750.666000", "102750.669000", "102750.672000", "102750.674000", "102750.677000", "102750.679000", "102750.682000", "102750.685000", "102750.688000", "102750.690000", "102750.693000", "102750.696000", "102750.698000", "102750.702000", "102750.704000", "102750.707000", "102750.710000", "102830.658000", "102830.661000", "102830.663000", "102830.666000", "102830.669000", "102830.671000", "102830.674000", "102830.677000", "102830.679000", "102830.682000", "102830.685000", "102830.687000", "102830.690000", "102830.693000", "102830.695000", "102830.699000", "102830.702000", "102830.705000", "102830.707000", "102830.710000", "102910.658000", "102910.661000", "102910.663000", "102910.666000", "102910.669000", "102910.671000", "102910.674000", "102910.677000", "102910.680000", "102910.682000", "102910.685000", "102910.687000", "102910.690000", "102910.693000", "102910.696000", "102910.699000", "102910.702000", "102910.705000", "102910.707000", "102910.710000", "102950.658000", "102950.661000", "102950.663000", "102950.666000", "102950.669000", "102950.671000", "102950.674000", "102950.677000", "102950.680000", "102950.682000", "102950.685000", "102950.688000", "102950.690000", "102950.693000", "102950.696000", "102950.699000", "102950.702000", "102950.705000", "102950.708000", "102950.710000", "102953.687000", "102953.690000"],
      "DataSetTrailingPadding": [
        "\u0000\u0000\u0000\u0000\u0000\u0000\u0000\u0000\u0000\u0000\u0000\u0000\u0000\u0000\u0000\u0000\u0000\u0000\u0000\u0000\u0000\u0000\u0000\u0000\u0000\u0000\u0000\u0000\u0000\u0000\u0000\u0000\u0000\u0000\u0000\u0000\u0000\u0000\u0000\u0000\u0000\u0000\u0000\u0000\u0000\u0000\u0000\u0000\u0000\u0000\u0000\u0000\u0000\u0000\u0000\u0000\u0000\u0000\u0000\u0000\u0000\u0000\u0000\u0000\u0000\u0000\u0000\u0000\u0000\u0000\u0000\u0000\u0000\u0000\u0000\u0000\u0000\u0000\u0000\u0000\u0000\u0000\u0000\u0000\u0000\u0000\u0000\u0000\u0000\u0000\u0000\u0000\u0000\u0000\u0000\u0000\u0000\u0000\u0000\u0000\u0000\u0000\u0000\u0000\u0000\u0000\u0000\u0000\u0000\u0000\u0000\u0000\u0000\u0000\u0000\u0000\u0000\u0000\u0000\u0000\u0000\u0000\u0000\u0000\u0000\u0000\u0000\u0000\u0000\u0000\u0000\u0000\u0000\u0000\u0000\u0000\u0000\u0000\u0000\u0000\u0000\u0000\u0000\u0000\u0000\u0000\u0000\u0000\u0000\u0000\u0000\u0000\u0000\u0000\u0000\u0000\u0000\u0000\u0000\u0000\u0000\u0000\u0000\u0000\u0000\u0000\u0000\u0000\u0000\u0000\u0000\u0000\u0000\u0000\u0000\u0000\u0000\u0000\u0000\u0000\u0000\u0000\u0000\u0000\u0000\u0000\u0000\u0000\u0000\u0000\u0000\u0000\u0000\u0000\u0000\u0000\u0000\u0000\u0000\u0000\u0000\u0000\u0000\u0000\u0000\u0000\u0000\u0000\u0000\u0000\u0000\u0000\u0000\u0000\u0000\u0000\u0000\u0000\u0000\u0000\u0000\u0000\u0000\u0000\u0000\u0000\u0000\u0000\u0000\u0000",
        "\u0000\u0000\u0000\u0000\u0000\u0000\u0000\u0000\u0000\u0000\u0000\u0000\u0000\u0000\u0000\u0000\u0000\u0000\u0000\u0000\u0000\u0000\u0000\u0000\u0000\u0000\u0000\u0000\u0000\u0000\u0000\u0000\u0000\u0000\u0000\u0000\u0000\u0000\u0000\u0000\u0000\u0000\u0000\u0000\u0000\u0000\u0000\u0000\u0000\u0000\u0000\u0000\u0000\u0000\u0000\u0000\u0000\u0000\u0000\u0000\u0000\u0000\u0000\u0000\u0000\u0000\u0000\u0000\u0000\u0000\u0000\u0000\u0000\u0000\u0000\u0000\u0000\u0000\u0000\u0000\u0000\u0000\u0000\u0000\u0000\u0000\u0000\u0000\u0000\u0000\u0000\u0000\u0000\u0000\u0000\u0000\u0000\u0000\u0000\u0000\u0000\u0000\u0000\u0000\u0000\u0000\u0000\u0000\u0000\u0000\u0000\u0000\u0000\u0000\u0000\u0000\u0000\u0000\u0000\u0000\u0000\u0000\u0000\u0000\u0000\u0000\u0000\u0000\u0000\u0000\u0000\u0000\u0000\u0000\u0000\u0000\u0000\u0000\u0000\u0000\u0000\u0000\u0000\u0000\u0000\u0000\u0000\u0000\u0000\u0000\u0000\u0000\u0000\u0000\u0000\u0000\u0000\u0000\u0000\u0000\u0000\u0000\u0000\u0000\u0000\u0000\u0000\u0000\u0000\u0000\u0000\u0000\u0000\u0000\u0000\u0000\u0000\u0000\u0000\u0000\u0000\u0000\u0000\u0000\u0000\u0000\u0000\u0000\u0000\u0000\u0000\u0000\u0000\u0000\u0000\u0000\u0000\u0000\u0000\u0000\u0000\u0000\u0000\u0000\u0000\u0000\u0000\u0000\u0000\u0000\u0000\u0000\u0000\u0000\u0000\u0000\u0000\u0000\u0000\u0000\u0000\u0000\u0000\u0000\u0000\u0000\u0000\u0000\u0000\u0000",
        "\u0000\u0000\u0000\u0000\u0000\u0000\u0000\u0000\u0000\u0000\u0000\u0000\u0000\u0000\u0000\u0000\u0000\u0000\u0000\u0000\u0000\u0000\u0000\u0000\u0000\u0000\u0000\u0000\u0000\u0000\u0000\u0000\u0000\u0000\u0000\u0000\u0000\u0000\u0000\u0000\u0000\u0000\u0000\u0000\u0000\u0000\u0000\u0000\u0000\u0000\u0000\u0000\u0000\u0000\u0000\u0000\u0000\u0000\u0000\u0000\u0000\u0000\u0000\u0000\u0000\u0000\u0000\u0000\u0000\u0000\u0000\u0000\u0000\u0000\u0000\u0000\u0000\u0000\u0000\u0000\u0000\u0000\u0000\u0000\u0000\u0000\u0000\u0000\u0000\u0000\u0000\u0000\u0000\u0000\u0000\u0000\u0000\u0000\u0000\u0000\u0000\u0000\u0000\u0000\u0000\u0000\u0000\u0000\u0000\u0000\u0000\u0000\u0000\u0000\u0000\u0000\u0000\u0000\u0000\u0000\u0000\u0000\u0000\u0000\u0000\u0000\u0000\u0000\u0000\u0000\u0000\u0000\u0000\u0000\u0000\u0000\u0000\u0000\u0000\u0000\u0000\u0000\u0000\u0000\u0000\u0000\u0000\u0000\u0000\u0000\u0000\u0000\u0000\u0000\u0000\u0000\u0000\u0000\u0000\u0000\u0000\u0000\u0000\u0000\u0000\u0000\u0000\u0000\u0000\u0000\u0000\u0000\u0000\u0000\u0000\u0000\u0000\u0000\u0000\u0000\u0000\u0000\u0000\u0000\u0000\u0000\u0000\u0000\u0000\u0000\u0000\u0000\u0000\u0000\u0000\u0000\u0000\u0000\u0000\u0000\u0000\u0000\u0000\u0000\u0000\u0000\u0000\u0000\u0000\u0000\u0000\u0000\u0000\u0000\u0000\u0000\u0000\u0000\u0000\u0000\u0000\u0000\u0000\u0000\u0000\u0000\u0000\u0000\u0000\u0000",
        "\u0000\u0000\u0000\u0000\u0000\u0000\u0000\u0000\u0000\u0000\u0000\u0000\u0000\u0000\u0000\u0000\u0000\u0000\u0000\u0000\u0000\u0000\u0000\u0000\u0000\u0000\u0000\u0000\u0000\u0000\u0000\u0000\u0000\u0000\u0000\u0000\u0000\u0000\u0000\u0000\u0000\u0000\u0000\u0000\u0000\u0000\u0000\u0000\u0000\u0000\u0000\u0000\u0000\u0000\u0000\u0000\u0000\u0000\u0000\u0000\u0000\u0000\u0000\u0000\u0000\u0000\u0000\u0000\u0000\u0000\u0000\u0000\u0000\u0000\u0000\u0000\u0000\u0000\u0000\u0000\u0000\u0000\u0000\u0000\u0000\u0000\u0000\u0000\u0000\u0000\u0000\u0000\u0000\u0000\u0000\u0000\u0000\u0000\u0000\u0000\u0000\u0000\u0000\u0000\u0000\u0000\u0000\u0000\u0000\u0000\u0000\u0000\u0000\u0000\u0000\u0000\u0000\u0000\u0000\u0000\u0000\u0000\u0000\u0000\u0000\u0000\u0000\u0000\u0000\u0000\u0000\u0000\u0000\u0000\u0000\u0000\u0000\u0000\u0000\u0000\u0000\u0000\u0000\u0000\u0000\u0000\u0000\u0000\u0000\u0000\u0000\u0000\u0000\u0000\u0000\u0000\u0000\u0000\u0000\u0000\u0000\u0000\u0000\u0000\u0000\u0000\u0000\u0000\u0000\u0000\u0000\u0000\u0000\u0000\u0000\u0000\u0000\u0000\u0000\u0000\u0000\u0000\u0000\u0000\u0000\u0000\u0000\u0000\u0000\u0000\u0000\u0000\u0000\u0000\u0000\u0000\u0000\u0000\u0000\u0000\u0000\u0000\u0000\u0000\u0000\u0000\u0000\u0000\u0000\u0000\u0000\u0000\u0000\u0000\u0000\u0000\u0000\u0000\u0000\u0000\u0000\u0000\u0000\u0000\u0000\u0000\u0000\u0000\u0000\u0000",
        "\u0000\u0000\u0000\u0000\u0000\u0000\u0000\u0000\u0000\u0000\u0000\u0000\u0000\u0000\u0000\u0000\u0000\u0000\u0000\u0000\u0000\u0000\u0000\u0000\u0000\u0000\u0000\u0000\u0000\u0000\u0000\u0000\u0000\u0000\u0000\u0000\u0000\u0000\u0000\u0000\u0000\u0000\u0000\u0000\u0000\u0000\u0000\u0000\u0000\u0000\u0000\u0000\u0000\u0000\u0000\u0000\u0000\u0000\u0000\u0000\u0000\u0000\u0000\u0000\u0000\u0000\u0000\u0000\u0000\u0000\u0000\u0000\u0000\u0000\u0000\u0000\u0000\u0000\u0000\u0000\u0000\u0000\u0000\u0000\u0000\u0000\u0000\u0000\u0000\u0000\u0000\u0000\u0000\u0000\u0000\u0000\u0000\u0000\u0000\u0000\u0000\u0000\u0000\u0000\u0000\u0000\u0000\u0000\u0000\u0000\u0000\u0000\u0000\u0000\u0000\u0000\u0000\u0000\u0000\u0000\u0000\u0000\u0000\u0000\u0000\u0000\u0000\u0000\u0000\u0000\u0000\u0000\u0000\u0000\u0000\u0000\u0000\u0000\u0000\u0000\u0000\u0000\u0000\u0000\u0000\u0000\u0000\u0000\u0000\u0000\u0000\u0000\u0000\u0000\u0000\u0000\u0000\u0000\u0000\u0000\u0000\u0000\u0000\u0000\u0000\u0000\u0000\u0000\u0000\u0000\u0000\u0000\u0000\u0000\u0000\u0000\u0000\u0000\u0000\u0000\u0000\u0000\u0000\u0000\u0000\u0000\u0000\u0000\u0000\u0000\u0000\u0000\u0000\u0000\u0000\u0000\u0000\u0000\u0000\u0000\u0000\u0000\u0000\u0000\u0000\u0000\u0000\u0000\u0000\u0000\u0000\u0000\u0000\u0000\u0000\u0000\u0000\u0000\u0000\u0000\u0000\u0000\u0000\u0000\u0000\u0000\u0000\u0000",
