{
  "AcquisitionMatrixPE": 70,
  "AcquisitionNumber": 1,
  "AcquisitionTime": "10:50:36.510000",
  "BandwidthPerPixelPhaseEncode": 51.948,
  "BaseResolution": 70,
  "BodyPartExamined": "HEAD",
  "CoilCombinationMethod": "Sum of Squares",
  "ConsistencyInfo": "N4_VE11C_LATEST_20160120",
  "ConversionSoftware": "dcm2niix",
  "ConversionSoftwareVersion": "v1.0.20220720",
  "DerivedVendorReportedEchoSpacing": 0.000550001,
  "DeviceSerialNumber": "66061",
  "DwellTime": 3.3e-06,
  "EchoTime": 0.022,
  "EchoTrainLength": 35,
  "EffectiveEchoSpacing": 0.000275,
  "FlipAngle": 90,
  "HeudiconvVersion": "1.1.1",
  "ImageOrientationPatientDICOM": [0.999751, 0.005304, 0.0216946, -0.00122139, 0.982921, -0.184024],
  "ImageOrientationText": "Tra>Cor(-10.6)>Sag(1.3)",
  "ImageType": [
    "ORIGINAL",
    "PRIMARY",
    "M",
    "ND",
    "NORM",
    "MOSAIC"
],
  "ImagingFrequency": 123.254,
  "InPlanePhaseEncodingDirectionDICOM": "COL",
  "InstitutionAddress": "Street StreetNo,City/1c4204/,District,KR,ZIP",
  "InstitutionName": "SKKU",
  "InstitutionalDepartmentName": "Department",
  "MRAcquisitionType": "2D",
  "MagneticFieldStrength": 3,
  "Manufacturer": "Siemens",
  "ManufacturersModelName": "Prisma",
  "MatrixCoilMode": "GRAPPA",
  "Modality": "MR",
  "NonlinearGradientCorrection": false,
  "ParallelReductionFactorInPlane": 2,
  "PartialFourier": 1,
  "PatientPosition": "HFS",
  "PercentPhaseFOV": 100,
  "PercentSampling": 100,
  "PhaseEncodingDirection": "j-",
  "PhaseEncodingSteps": 70,
  "PhaseResolution": 1,
  "PixelBandwidth": 2165,
  "ProcedureStepDescription": "Head^PI:Others",
  "ProtocolName": "BOLD_ep2d_3x3x3_response2",
  "PulseSequenceDetails": "%SiemensSeq%\\ep2d_pace",
  "ReceiveCoilActiveElements": "HC1-7",
  "ReceiveCoilName": "HeadNeck_64",
  "ReconMatrixPE": 70,
  "RefLinesPE": 24,
  "RepetitionTime": 2,
  "SAR": 0.11784,
  "ScanOptions": "FS",
  "ScanningSequence": "EP",
  "SequenceName": "*epfid2d1_70",
  "SequenceVariant": "SK",
  "SeriesDescription": "BOLD_ep2d_3x3x3_response2",
  "SeriesNumber": 9,
  "ShimSetting": [5056, 3712, 4434, 416, -31, 22, -14, 8],
  "SliceThickness": 3,
  "SliceTiming": [0.99, 0, 1.0375, 0.0475, 1.085, 0.095, 1.1325, 0.1425, 1.18, 0.19, 1.225, 0.235, 1.2725, 0.2825, 1.32, 0.33, 1.3675, 0.3775, 1.415, 0.425, 1.4625, 0.4725, 1.51, 0.52, 1.555, 0.565, 1.6025, 0.6125, 1.65, 0.66, 1.6975, 0.7075, 1.745, 0.755, 1.7925, 0.8025, 1.84, 0.85, 1.885, 0.895, 1.9325, 0.9425],
  "SoftwareVersions": "syngo MR E11",
  "SpacingBetweenSlices": 3,
  "StationName": "AWP66061",
  "TaskName": "response",
  "TotalReadoutTime": 0.018975,
  "TxRefAmp": 220.876,
  "dcmmeta_affine": [
    [-2.9992516040802, -0.0036641699261963367, 0.06690052896738052, 103.1524887084961],
    [-0.015912000089883804, 2.948763132095337, -0.5518540740013123, -94.40630340576172],
    [0.06508390605449677, 0.5520712733268738, 2.948047161102295, -74.76171112060547],
    [0.0, 0.0, 0.0, 1.0]
],
  "dcmmeta_reorient_transform": [
    [0.0, -1.0, 0.0, 69.0],
    [1.0, 0.0, 0.0, 0.0],
    [0.0, 0.0, -1.0, 41.0],
    [0.0, 0.0, 0.0, 1.0]
],
  "dcmmeta_shape": [70, 70, 42, 341],
  "dcmmeta_slice_dim": 2,
  "dcmmeta_version": 0.6,
  "global": {
    "const": {
      "AcquisitionMatrix": [70, 0, 0, 70],
      "AngioFlag": "N",
      "BitsAllocated": 16,
      "BitsStored": 12,
      "BodyPartExamined": "HEAD",
      "Columns": 490,
      "EchoNumbers": 1,
      "EchoTime": 22.0,
      "EchoTrainLength": 35,
      "FlipAngle": 90.0,
      "HighBit": 11,
      "ImageOrientationPatient": [0.9997505740928, 0.00530400020139, 0.02169463488946, -0.0012213899633, 0.98292103834598, -0.1840237500526],
      "ImagePositionPatient": [-734.7159676115, -709.01410831889, 186.46847770887],
      "ImageType": [
        "ORIGINAL",
        "PRIMARY",
        "M",
        "ND",
        "NORM",
        "MOSAIC"
],
      "ImagedNucleus": "1H",
      "ImagingFrequency": 123.254428,
      "InPlanePhaseEncodingDirection": "COL",
      "MRAcquisitionType": "2D",
      "MagneticFieldStrength": 3.0,
      "Manufacturer": "SIEMENS",
      "ManufacturerModelName": "Prisma",
      "Modality": "MR",
      "NumberOfAverages": 1.0,
      "NumberOfPhaseEncodingSteps": 70,
      "PercentPhaseFieldOfView": 100.0,
      "PercentSampling": 100.0,
      "PerformedProcedureStepStartTime": "100717.796000",
      "PhotometricInterpretation": "MONOCHROME2",
      "PixelBandwidth": 2165.0,
      "PixelRepresentation": 0,
      "PixelSpacing": [3.0, 3.0],
      "ProtocolName": "BOLD_ep2d_3x3x3_response2",
      "RepetitionTime": 2000.0,
      "Rows": 490,
      "SAR": 0.11784044574092,
      "SamplesPerPixel": 1,
      "ScanOptions": "FS",
      "ScanningSequence": "EP",
      "SequenceName": "*epfid2d1_70",
      "SequenceVariant": "SK",
      "SeriesDescription": "BOLD_ep2d_3x3x3_response2",
      "SeriesNumber": 9,
      "SeriesTime": "105135.300000",
      "SliceLocation": 69.199472769016,
      "SliceThickness": 3.0,
      "SmallestImagePixelValue": 0,
      "SoftwareVersions": "syngo MR E11",
      "SpacingBetweenSlices": 3.0000000312767,
      "SpecificCharacterSet": "ISO_IR 100",
      "StudyID": "1",
      "StudyTime": "100717.730000",
      "TransmitCoilName": "Body",
      "VariableFlipAngleFlag": "N",
      "WindowCenterWidthExplanation": "Algo1",
      "dBdt": 0.0},
    "slices": {}
  },
  "time": {
    "samples": {
      "AcquisitionNumber": [1, 2, 3, 4, 5, 6, 7, 8, 9, 10, 11, 12, 13, 14, 15, 16, 17, 18, 19, 20, 21, 22, 23, 24, 25, 26, 27, 28, 29, 30, 31, 32, 33, 34, 35, 36, 37, 38, 39, 40, 41, 42, 43, 44, 45, 46, 47, 48, 49, 50, 51, 52, 53, 54, 55, 56, 57, 58, 59, 60, 61, 62, 63, 64, 65, 66, 67, 68, 69, 70, 71, 72, 73, 74, 75, 76, 77, 78, 79, 80, 81, 82, 83, 84, 85, 86, 87, 88, 89, 90, 91, 92, 93, 94, 95, 96, 97, 98, 99, 100, 101, 102, 103, 104, 105, 106, 107, 108, 109, 110, 111, 112, 113, 114, 115, 116, 117, 118, 119, 120, 121, 122, 123, 124, 125, 126, 127, 128, 129, 130, 131, 132, 133, 134, 135, 136, 137, 138, 139, 140, 141, 142, 143, 144, 145, 146, 147, 148, 149, 150, 151, 152, 153, 154, 155, 156, 157, 158, 159, 160, 161, 162, 163, 164, 165, 166, 167, 168, 169, 170, 171, 172, 173, 174, 175, 176, 177, 178, 179, 180, 181, 182, 183, 184, 185, 186, 187, 188, 189, 190, 191, 192, 193, 194, 195, 196, 197, 198, 199, 200, 201, 202, 203, 204, 205, 206, 207, 208, 209, 210, 211, 212, 213, 214, 215, 216, 217, 218, 219, 220, 221, 222, 223, 224, 225, 226, 227, 228, 229, 230, 231, 232, 233, 234, 235, 236, 237, 238, 239, 240, 241, 242, 243, 244, 245, 246, 247, 248, 249, 250, 251, 252, 253, 254, 255, 256, 257, 258, 259, 260, 261, 262, 263, 264, 265, 266, 267, 268, 269, 270, 271, 272, 273, 274, 275, 276, 277, 278, 279, 280, 281, 282, 283, 284, 285, 286, 287, 288, 289, 290, 291, 292, 293, 294, 295, 296, 297, 298, 299, 300, 301, 302, 303, 304, 305, 306, 307, 308, 309, 310, 311, 312, 313, 314, 315, 316, 317, 318, 319, 320, 321, 322, 323, 324, 325, 326, 327, 328, 329, 330, 331, 332, 333, 334, 335, 336, 337, 338, 339, 340, 341],
      "AcquisitionTime": ["105036.510000", "105038.510000", "105040.510000", "105042.510000", "105044.510000", "105046.510000", "105048.510000", "105050.510000", "105052.510000", "105054.510000", "105056.510000", "105058.510000", "105100.510000", "105102.510000", "105104.510000", "105106.510000", "105108.510000", "105110.510000", "105112.510000", "105114.510000", "105116.510000", "105118.510000", "105120.510000", "105122.510000", "105124.510000", "105126.510000", "105128.510000", "105130.510000", "105132.510000", "105134.510000", "105136.510000", "105138.510000", "105140.510000", "105142.510000", "105144.510000", "105146.510000", "105148.510000", "105150.510000", "105152.510000", "105154.510000", "105156.510000", "105158.510000", "105200.510000", "105202.510000", "105204.510000", "105206.510000", "105208.510000", "105210.510000", "105212.510000", "105214.510000", "105216.510000", "105218.510000", "105220.510000", "105222.510000", "105224.510000", "105226.510000", "105228.510000", "105230.510000", "105232.510000", "105234.510000", "105236.510000", "105238.510000", "105240.510000", "105242.510000", "105244.510000", "105246.510000", "105248.510000", "105250.510000", "105252.510000", "105254.510000", "105256.510000", "105258.510000", "105300.510000", "105302.510000", "105304.510000", "105306.510000", "105308.510000", "105310.510000", "105312.510000", "105314.510000", "105316.510000", "105318.510000", "105320.510000", "105322.510000", "105324.510000", "105326.510000", "105328.510000", "105330.510000", "105332.510000", "105334.510000", "105336.510000", "105338.510000", "105340.510000", "105342.510000", "105344.510000", "105346.510000", "105348.510000", "105350.510000", "105352.510000", "105354.510000", "105356.510000", "105358.510000", "105400.510000", "105402.510000", "105404.510000", "105406.510000", "105408.510000", "105410.510000", "105412.510000", "105414.510000", "105416.510000", "105418.510000", "105420.510000", "105422.510000", "105424.510000", "105426.510000", "105428.510000", "105430.510000", "105432.510000", "105434.510000", "105436.510000", "105438.510000", "105440.510000", "105442.510000", "105444.510000", "105446.510000", "105448.510000", "105450.510000", "105452.510000", "105454.510000", "105456.510000", "105458.510000", "105500.510000", "105502.510000", "105504.510000", "105506.510000", "105508.510000", "105510.510000", "105512.510000", "105514.510000", "105516.510000", "105518.510000", "105520.510000", "105522.510000", "105524.510000", "105526.510000", "105528.510000", "105530.510000", "105532.510000", "105534.510000", "105536.510000", "105538.510000", "105540.510000", "105542.510000", "105544.510000", "105546.510000", "105548.510000", "105550.510000", "105552.510000", "105554.510000", "105556.510000", "105558.510000", "105600.510000", "105602.510000", "105604.510000", "105606.510000", "105608.510000", "105610.510000", "105612.510000", "105614.510000", "105616.510000", "105618.510000", "105620.510000", "105622.510000", "105624.510000", "105626.510000", "105628.510000", "105630.510000", "105632.510000", "105634.510000", "105636.510000", "105638.510000", "105640.510000", "105642.510000", "105644.510000", "105646.510000", "105648.510000", "105650.510000", "105652.510000", "105654.510000", "105656.510000", "105658.510000", "105700.510000", "105702.510000", "105704.510000", "105706.510000", "105708.510000", "105710.510000", "105712.510000", "105714.510000", "105716.510000", "105718.510000", "105720.510000", "105722.510000", "105724.510000", "105726.510000", "105728.510000", "105730.510000", "105732.510000", "105734.510000", "105736.510000", "105738.510000", "105740.510000", "105742.510000", "105744.510000", "105746.510000", "105748.510000", "105750.510000", "105752.510000", "105754.510000", "105756.510000", "105758.510000", "105800.510000", "105802.510000", "105804.510000", "105806.510000", "105808.510000", "105810.510000", "105812.510000", "105814.510000", "105816.510000", "105818.510000", "105820.510000", "105822.510000", "105824.510000", "105826.510000", "105828.510000", "105830.510000", "105832.510000", "105834.510000", "105836.510000", "105838.510000", "105840.510000", "105842.510000", "105844.510000", "105846.510000", "105848.510000", "105850.510000", "105852.510000", "105854.510000", "105856.510000", "105858.510000", "105900.510000", "105902.510000", "105904.510000", "105906.510000", "105908.510000", "105910.510000", "105912.510000", "105914.510000", "105916.510000", "105918.510000", "105920.510000", "105922.510000", "105924.510000", "105926.510000", "105928.510000", "105930.510000", "105932.510000", "105934.510000", "105936.510000", "105938.510000", "105940.510000", "105942.510000", "105944.510000", "105946.510000", "105948.510000", "105950.510000", "105952.510000", "105954.510000", "105956.510000", "105958.510000", "110000.510000", "110002.510000", "110004.510000", "110006.510000", "110008.510000", "110010.510000", "110012.510000", "110014.510000", "110016.510000", "110018.510000", "110020.510000", "110022.510000", "110024.510000", "110026.510000", "110028.510000", "110030.510000", "110032.510000", "110034.510000", "110036.510000", "110038.510000", "110040.510000", "110042.510000", "110044.510000", "110046.510000", "110048.510000", "110050.510000", "110052.510000", "110054.510000", "110056.510000", "110058.510000", "110100.510000", "110102.510000", "110104.510000", "110106.510000", "110108.510000", "110110.510000", "110112.510000", "110114.510000", "110116.510000", "110118.510000", "110120.510000", "110122.510000", "110124.510000", "110126.510000", "110128.510000", "110130.510000", "110132.510000", "110134.510000", "110136.510000", "110138.510000", "110140.510000", "110142.510000", "110144.510000", "110146.510000", "110148.510000", "110150.510000", "110152.510000", "110154.510000", "110156.510000"],
      "ContentTime": ["105135.303000", "105135.307000", "105135.310000", "105135.312000", "105135.315000", "105135.318000", "105135.320000", "105135.323000", "105135.326000", "105135.328000", "105135.331000", "105135.333000", "105135.336000", "105135.339000", "105135.347000", "105135.349000", "105135.352000", "105135.355000", "105135.357000", "105135.369000", "105135.372000", "105135.375000", "105135.378000", "105135.380000", "105135.383000", "105135.386000", "105135.388000", "105135.391000", "105135.394000", "105215.299000", "105215.302000", "105215.304000", "105215.307000", "105215.310000", "105215.312000", "105215.315000", "105215.318000", "105215.320000", "105215.323000", "105215.326000", "105215.328000", "105215.331000", "105215.334000", "105215.343000", "105215.346000", "105215.348000", "105215.351000", "105215.354000", "105215.356000", "105255.300000", "105255.303000", "105255.305000", "105255.308000", "105255.311000", "105255.313000", "105255.316000", "105255.319000", "105255.321000", "105255.324000", "105255.327000", "105255.329000", "105255.332000", "105255.335000", "105255.337000", "105255.340000", "105255.343000", "105255.345000", "105255.348000", "105255.351000", "105335.299000", "105335.301000", "105335.304000", "105335.307000", "105335.309000", "105335.312000", "105335.315000", "105335.317000", "105335.320000", "105335.323000", "105335.325000", "105335.328000", "105335.331000", "105335.333000", "105335.336000", "105335.339000", "105335.360000", "105335.370000", "105335.372000", "105335.375000", "105415.299000", "105415.302000", "105415.304000", "105415.307000", "105415.309000", "105415.312000", "105415.315000", "105415.317000", "105415.320000", "105415.323000", "105415.325000", "105415.328000", "105415.331000", "105415.333000", "105415.336000", "105415.339000", "105415.341000", "105415.344000", "105415.347000", "105415.349000", "105455.300000", "105455.303000", "105455.305000", "105455.308000", "105455.311000", "105455.313000", "105455.316000", "105455.319000", "105455.321000", "105455.324000", "105455.327000", "105455.329000", "105455.332000", "105455.335000", "105455.337000", "105455.340000", "105455.343000", "105455.345000", "105455.348000", "105455.351000", "105535.299000", "105535.301000", "105535.304000", "105535.307000", "105535.310000", "105535.312000", "105535.315000", "105535.318000", "105535.320000", "105535.323000", "105535.326000", "105535.328000", "105535.331000", "105535.334000", "105535.336000", "105535.339000", "105535.342000", "105535.344000", "105535.347000", "105535.350000", "105555.299000", "105555.302000", "105555.304000", "105555.307000", "105555.310000", "105555.312000", "105555.315000", "105555.317000", "105555.320000", "105555.323000", "105635.299000", "105635.302000", "105635.304000", "105635.307000", "105635.310000", "105635.312000", "105635.315000", "105635.318000", "105635.320000", "105635.329000", "105635.331000", "105635.334000", "105635.337000", "105635.339000", "105635.342000", "105635.345000", "105635.347000", "105635.350000", "105635.353000", "105635.355000", "105715.300000", "105715.303000", "105715.305000", "105715.308000", "105715.310000", "105715.313000", "105715.316000", "105715.319000", "105715.321000", "105715.324000", "105715.327000", "105715.329000", "105715.332000", "105715.335000", "105715.337000", "105715.340000", "105715.343000", "105715.345000", "105715.348000", "105715.351000", "105755.299000", "105755.302000", "105755.305000", "105755.307000", "105755.310000", "105755.313000", "105755.315000", "105755.318000", "105755.321000", "105755.323000", "105755.326000", "105755.329000", "105755.331000", "105755.334000", "105755.337000", "105755.339000", "105755.342000", "105755.345000", "105755.347000", "105755.350000", "105835.299000", "105835.302000", "105835.305000", "105835.308000", "105835.311000", "105835.314000", "105835.316000", "105835.319000", "105835.322000", "105835.325000", "105835.328000", "105835.331000", "105835.334000", "105835.336000", "105835.339000", "105835.342000", "105835.344000", "105835.347000", "105835.350000", "105835.353000", "105915.299000", "105915.302000", "105915.304000", "105915.307000", "105915.309000", "105915.312000", "105915.315000", "105915.317000", "105915.320000", "105915.323000", "105915.325000", "105915.328000", "105915.331000", "105915.333000", "105915.336000", "105915.339000", "105915.341000", "105915.344000", "105915.347000", "105915.349000", "105955.300000", "105955.303000", "105955.305000", "105955.308000", "105955.311000", "105955.313000", "105955.316000", "105955.319000", "105955.321000", "105955.324000", "105955.327000", "105955.329000", "105955.332000", "105955.335000", "105955.338000", "105955.340000", "105955.343000", "105955.346000", "105955.348000", "105955.351000", "110035.299000", "110035.302000", "110035.304000", "110035.307000", "110035.310000", "110035.312000", "110035.315000", "110035.318000", "110035.320000", "110035.323000", "110035.326000", "110035.329000", "110035.331000", "110035.334000", "110035.336000", "110035.339000", "110035.342000", "110035.344000", "110035.347000", "110035.350000", "110115.299000", "110115.302000", "110115.304000", "110115.307000", "110115.310000", "110115.312000", "110115.315000", "110115.327000", "110115.329000", "110115.332000", "110115.335000", "110115.337000", "110115.340000", "110115.343000", "110115.345000", "110115.348000", "110115.351000", "110115.353000", "110115.356000", "110115.359000", "110155.300000", "110155.303000", "110155.305000", "110155.308000", "110155.311000", "110155.313000", "110155.316000", "110155.319000", "110155.321000", "110155.324000", "110155.327000", "110155.329000", "110155.332000", "110155.335000", "110155.337000", "110155.340000", "110155.343000", "110155.345000", "110155.348000", "110155.351000", "110158.079000", "110158.082000"],
      "DataSetTrailingPadding": [
        "\u0000\u0000\u0000\u0000\u0000\u0000\u0000\u0000\u0000\u0000\u0000\u0000\u0000\u0000\u0000\u0000\u0000\u0000\u0000\u0000\u0000\u0000\u0000\u0000\u0000\u0000\u0000\u0000\u0000\u0000\u0000\u0000\u0000\u0000\u0000\u0000\u0000\u0000\u0000\u0000\u0000\u0000\u0000\u0000\u0000\u0000\u0000\u0000\u0000\u0000\u0000\u0000\u0000\u0000\u0000\u0000\u0000\u0000\u0000\u0000\u0000\u0000\u0000\u0000\u0000\u0000\u0000\u0000\u0000\u0000\u0000\u0000\u0000\u0000\u0000\u0000\u0000\u0000\u0000\u0000\u0000\u0000\u0000\u0000\u0000\u0000\u0000\u0000\u0000\u0000\u0000\u0000\u0000\u0000\u0000\u0000\u0000\u0000\u0000\u0000\u0000\u0000\u0000\u0000\u0000\u0000\u0000\u0000",
        "\u0000\u0000\u0000\u0000\u0000\u0000\u0000\u0000\u0000\u0000\u0000\u0000\u0000\u0000\u0000\u0000\u0000\u0000\u0000\u0000\u0000\u0000\u0000\u0000\u0000\u0000\u0000\u0000\u0000\u0000\u0000\u0000\u0000\u0000\u0000\u0000\u0000\u0000\u0000\u0000\u0000\u0000\u0000\u0000\u0000\u0000\u0000\u0000\u0000\u0000\u0000\u0000\u0000\u0000\u0000\u0000\u0000\u0000\u0000\u0000\u0000\u0000\u0000\u0000\u0000\u0000\u0000\u0000\u0000\u0000\u0000\u0000\u0000\u0000\u0000\u0000\u0000\u0000\u0000\u0000\u0000\u0000\u0000\u0000\u0000\u0000\u0000\u0000\u0000\u0000\u0000\u0000\u0000\u0000\u0000\u0000\u0000\u0000\u0000\u0000\u0000\u0000\u0000\u0000\u0000\u0000",
        "\u0000\u0000\u0000\u0000\u0000\u0000\u0000\u0000\u0000\u0000\u0000\u0000\u0000\u0000\u0000\u0000\u0000\u0000\u0000\u0000\u0000\u0000\u0000\u0000\u0000\u0000\u0000\u0000\u0000\u0000\u0000\u0000\u0000\u0000\u0000\u0000\u0000\u0000\u0000\u0000\u0000\u0000\u0000\u0000\u0000\u0000\u0000\u0000\u0000\u0000\u0000\u0000\u0000\u0000\u0000\u0000\u0000\u0000\u0000\u0000\u0000\u0000\u0000\u0000\u0000\u0000\u0000\u0000\u0000\u0000\u0000\u0000\u0000\u0000\u0000\u0000\u0000\u0000\u0000\u0000\u0000\u0000\u0000\u0000\u0000\u0000\u0000\u0000\u0000\u0000\u0000\u0000\u0000\u0000\u0000\u0000\u0000\u0000\u0000\u0000\u0000\u0000\u0000\u0000\u0000\u0000",
        "\u0000\u0000\u0000\u0000\u0000\u0000\u0000\u0000\u0000\u0000\u0000\u0000\u0000\u0000\u0000\u0000\u0000\u0000\u0000\u0000\u0000\u0000\u0000\u0000\u0000\u0000\u0000\u0000\u0000\u0000\u0000\u0000\u0000\u0000\u0000\u0000\u0000\u0000\u0000\u0000\u0000\u0000\u0000\u0000\u0000\u0000\u0000\u0000\u0000\u0000\u0000\u0000\u0000\u0000\u0000\u0000\u0000\u0000\u0000\u0000\u0000\u0000\u0000\u0000\u0000\u0000\u0000\u0000\u0000\u0000\u0000\u0000\u0000\u0000\u0000\u0000\u0000\u0000\u0000\u0000\u0000\u0000\u0000\u0000\u0000\u0000\u0000\u0000\u0000\u0000\u0000\u0000\u0000\u0000\u0000\u0000\u0000\u0000\u0000\u0000\u0000\u0000\u0000\u0000\u0000\u0000",
        "\u0000\u0000\u0000\u0000\u0000\u0000\u0000\u0000\u0000\u0000\u0000\u0000\u0000\u0000\u0000\u0000\u0000\u0000\u0000\u0000\u0000\u0000\u0000\u0000\u0000\u0000\u0000\u0000\u0000\u0000\u0000\u0000\u0000\u0000\u0000\u0000\u0000\u0000\u0000\u0000\u0000\u0000\u0000\u0000\u0000\u0000\u0000\u0000\u0000\u0000\u0000\u0000\u0000\u0000\u0000\u0000\u0000\u0000\u0000\u0000\u0000\u0000\u0000\u0000\u0000\u0000\u0000\u0000\u0000\u0000\u0000\u0000\u0000\u0000\u0000\u0000\u0000\u0000\u0000\u0000\u0000\u0000\u0000\u0000\u0000\u0000\u0000\u0000\u0000\u0000\u0000\u0000\u0000\u0000\u0000\u0000\u0000\u0000\u0000\u0000\u0000\u0000\u0000\u0000",
        "\u0000\u0000\u0000\u0000\u0000\u0000\u0000\u0000\u0000\u0000\u0000\u0000\u0000\u0000\u0000\u0000\u0000\u0000\u0000\u0000\u0000\u0000\u0000\u0000\u0000\u0000\u0000\u0000\u0000\u0000\u0000\u0000\u0000\u0000\u0000\u0000\u0000\u0000\u0000\u0000\u0000\u0000\u0000\u0000\u0000\u0000\u0000\u0000\u0000\u0000\u0000\u0000\u0000\u0000\u0000\u0000\u0000\u0000\u0000\u0000\u0000\u0000\u0000\u0000\u0000\u0000\u0000\u0000\u0000\u0000\u0000\u0000\u0000\u0000\u0000\u0000\u0000\u0000\u0000\u0000\u0000\u0000\u0000\u0000\u0000\u0000\u0000\u0000\u0000\u0000\u0000\u0000\u0000\u0000\u0000\u0000\u0000\u0000\u0000\u0000\u0000\u0000\u0000\u0000",
        "\u0000\u0000\u0000\u0000\u0000\u0000\u0000\u0000\u0000\u0000\u0000\u0000\u0000\u0000\u0000\u0000\u0000\u0000\u0000\u0000\u0000\u0000\u0000\u0000\u0000\u0000\u0000\u0000\u0000\u0000\u0000\u0000\u0000\u0000\u0000\u0000\u0000\u0000\u0000\u0000\u0000\u0000\u0000\u0000\u0000\u0000\u0000\u0000\u0000\u0000\u0000\u0000\u0000\u0000\u0000\u0000\u0000\u0000\u0000\u0000\u0000\u0000\u0000\u0000\u0000\u0000\u0000\u0000\u0000\u0000\u0000\u0000\u0000\u0000\u0000\u0000\u0000\u0000\u0000\u0000\u0000\u0000\u0000\u0000\u0000\u0000\u0000\u0000\u0000\u0000\u0000\u0000\u0000\u0000\u0000\u0000\u0000\u0000\u0000\u0000\u0000\u0000\u0000\u0000",
        "\u0000\u0000\u0000\u0000\u0000\u0000\u0000\u0000\u0000\u0000\u0000\u0000\u0000\u0000\u0000\u0000\u0000\u0000\u0000\u0000\u0000\u0000\u0000\u0000\u0000\u0000\u0000\u0000\u0000\u0000\u0000\u0000\u0000\u0000\u0000\u0000\u0000\u0000\u0000\u0000\u0000\u0000\u0000\u0000\u0000\u0000\u0000\u0000\u0000\u0000\u0000\u0000\u0000\u0000\u0000\u0000\u0000\u0000\u0000\u0000\u0000\u0000\u0000\u0000\u0000\u0000\u0000\u0000\u0000\u0000\u0000\u0000\u0000\u0000\u0000\u0000\u0000\u0000\u0000\u0000\u0000\u0000\u0000\u0000\u0000\u0000\u0000\u0000\u0000\u0000\u0000\u0000\u0000\u0000\u0000\u0000\u0000\u0000\u0000\u0000\u0000\u0000\u0000\u0000",
        "\u0000\u0000\u0000\u0000\u0000\u0000\u0000\u0000\u0000\u0000\u0000\u0000\u0000\u0000\u0000\u0000\u0000\u0000\u0000\u0000\u0000\u0000\u0000\u0000\u0000\u0000\u0000\u0000\u0000\u0000\u0000\u0000\u0000\u0000\u0000\u0000\u0000\u0000\u0000\u0000\u0000\u0000\u0000\u0000\u0000\u0000\u0000\u0000\u0000\u0000\u0000\u0000\u0000\u0000\u0000\u0000\u0000\u0000\u0000\u0000\u0000\u0000\u0000\u0000\u0000\u0000\u0000\u0000\u0000\u0000\u0000\u0000\u0000\u0000\u0000\u0000\u0000\u0000\u0000\u0000\u0000\u0000\u0000\u0000\u0000\u0000\u0000\u0000\u0000\u0000\u0000\u0000\u0000\u0000\u0000\u0000\u0000\u0000\u0000\u0000\u0000\u0000\u0000\u0000",
        "\u0000\u0000\u0000\u0000\u0000\u0000\u0000\u0000\u0000\u0000\u0000\u0000\u0000\u0000\u0000\u0000\u0000\u0000\u0000\u0000\u0000\u0000\u0000\u0000\u0000\u0000\u0000\u0000\u0000\u0000\u0000\u0000\u0000\u0000\u0000\u0000\u0000\u0000\u0000\u0000\u0000\u0000\u0000\u0000\u0000\u0000\u0000\u0000\u0000\u0000\u0000\u0000\u0000\u0000\u0000\u0000\u0000\u0000\u0000\u0000\u0000\u0000\u0000\u0000\u0000\u0000\u0000\u0000\u0000\u0000\u0000\u0000\u0000\u0000\u0000\u0000\u0000\u0000\u0000\u0000\u0000\u0000\u0000\u0000\u0000\u0000\u0000\u0000\u0000\u0000\u0000\u0000\u0000\u0000\u0000\u0000\u0000\u0000\u0000\u0000\u0000\u0000\u0000\u0000",
        "\u0000\u0000\u0000\u0000\u0000\u0000\u0000\u0000\u0000\u0000\u0000\u0000\u0000\u0000\u0000\u0000\u0000\u0000\u0000\u0000\u0000\u0000\u0000\u0000\u0000\u0000\u0000\u0000\u0000\u0000\u0000\u0000\u0000\u0000\u0000\u0000\u0000\u0000\u0000\u0000\u0000\u0000\u0000\u0000\u0000\u0000\u0000\u0000\u0000\u0000\u0000\u0000\u0000\u0000\u0000\u0000\u0000\u0000\u0000\u0000\u0000\u0000\u0000\u0000\u0000\u0000\u0000\u0000\u0000\u0000\u0000\u0000\u0000\u0000\u0000\u0000\u0000\u0000\u0000\u0000\u0000\u0000\u0000\u0000\u0000\u0000\u0000\u0000\u0000\u0000\u0000\u0000\u0000\u0000\u0000\u0000\u0000\u0000\u0000\u0000\u0000\u0000\u0000\u0000",
        "\u0000\u0000\u0000\u0000\u0000\u0000\u0000\u0000\u0000\u0000\u0000\u0000\u0000\u0000\u0000\u0000\u0000\u0000\u0000\u0000\u0000\u0000\u0000\u0000\u0000\u0000\u0000\u0000\u0000\u0000\u0000\u0000\u0000\u0000\u0000\u0000\u0000\u0000\u0000\u0000\u0000\u0000\u0000\u0000\u0000\u0000\u0000\u0000\u0000\u0000\u0000\u0000\u0000\u0000\u0000\u0000\u0000\u0000\u0000\u0000\u0000\u0000\u0000\u0000\u0000\u0000\u0000\u0000\u0000\u0000\u0000\u0000\u0000\u0000\u0000\u0000\u0000\u0000\u0000\u0000\u0000\u0000\u0000\u0000\u0000\u0000\u0000\u0000\u0000\u0000\u0000\u0000\u0000\u0000\u0000\u0000\u0000\u0000\u0000\u0000\u0000\u0000\u0000\u0000",
        "\u0000\u0000\u0000\u0000\u0000\u0000\u0000\u0000\u0000\u0000\u0000\u0000\u0000\u0000\u0000\u0000\u0000\u0000\u0000\u0000\u0000\u0000\u0000\u0000\u0000\u0000\u0000\u0000\u0000\u0000\u0000\u0000\u0000\u0000\u0000\u0000\u0000\u0000\u0000\u0000\u0000\u0000\u0000\u0000\u0000\u0000\u0000\u0000\u0000\u0000\u0000\u0000\u0000\u0000\u0000\u0000\u0000\u0000\u0000\u0000\u0000\u0000\u0000\u0000\u0000\u0000\u0000\u0000\u0000\u0000\u0000\u0000\u0000\u0000\u0000\u0000\u0000\u0000\u0000\u0000\u0000\u0000\u0000\u0000\u0000\u0000\u0000\u0000\u0000\u0000\u0000\u0000\u0000\u0000\u0000\u0000\u0000\u0000\u0000\u0000\u0000\u0000\u0000\u0000",
        "\u0000\u0000\u0000\u0000\u0000\u0000\u0000\u0000\u0000\u0000\u0000\u0000\u0000\u0000\u0000\u0000\u0000\u0000\u0000\u0000\u0000\u0000\u0000\u0000\u0000\u0000\u0000\u0000\u0000\u0000\u0000\u0000\u0000\u0000\u0000\u0000\u0000\u0000\u0000\u0000\u0000\u0000\u0000\u0000\u0000\u0000\u0000\u0000\u0000\u0000\u0000\u0000\u0000\u0000\u0000\u0000\u0000\u0000\u0000\u0000\u0000\u0000\u0000\u0000\u0000\u0000\u0000\u0000\u0000\u0000\u0000\u0000\u0000\u0000\u0000\u0000\u0000\u0000\u0000\u0000\u0000\u0000\u0000\u0000\u0000\u0000\u0000\u0000\u0000\u0000\u0000\u0000\u0000\u0000\u0000\u0000\u0000\u0000\u0000\u0000\u0000\u0000\u0000\u0000",
        "\u0000\u0000\u0000\u0000\u0000\u0000\u0000\u0000\u0000\u0000\u0000\u0000\u0000\u0000\u0000\u0000\u0000\u0000\u0000\u0000\u0000\u0000\u0000\u0000\u0000\u0000\u0000\u0000\u0000\u0000\u0000\u0000\u0000\u0000\u0000\u0000\u0000\u0000\u0000\u0000\u0000\u0000\u0000\u0000\u0000\u0000\u0000\u0000\u0000\u0000\u0000\u0000\u0000\u0000\u0000\u0000\u0000\u0000\u0000\u0000\u0000\u0000\u0000\u0000\u0000\u0000\u0000\u0000\u0000\u0000\u0000\u0000\u0000\u0000\u0000\u0000\u0000\u0000\u0000\u0000\u0000\u0000\u0000\u0000\u0000\u0000\u0000\u0000\u0000\u0000\u0000\u0000\u0000\u0000\u0000\u0000\u0000\u0000\u0000\u0000\u0000\u0000\u0000\u0000",
        "\u0000\u0000\u0000\u0000\u0000\u0000\u0000\u0000\u0000\u0000\u0000\u0000\u0000\u0000\u0000\u0000\u0000\u0000\u0000\u0000\u0000\u0000\u0000\u0000\u0000\u0000\u0000\u0000\u0000\u0000\u0000\u0000\u0000\u0000\u0000\u0000\u0000\u0000\u0000\u0000\u0000\u0000\u0000\u0000\u0000\u0000\u0000\u0000\u0000\u0000\u0000\u0000\u0000\u0000\u0000\u0000\u0000\u0000\u0000\u0000\u0000\u0000\u0000\u0000\u0000\u0000\u0000\u0000\u0000\u0000\u0000\u0000\u0000\u0000\u0000\u0000\u0000\u0000\u0000\u0000\u0000\u0000\u0000\u0000\u0000\u0000\u0000\u0000\u0000\u0000\u0000\u0000\u0000\u0000\u0000\u0000\u0000\u0000\u0000\u0000\u0000\u0000\u0000\u0000",
        "\u0000\u0000\u0000\u0000\u0000\u0000\u0000\u0000\u0000\u0000\u0000\u0000\u0000\u0000\u0000\u0000\u0000\u0000\u0000\u0000\u0000\u0000\u0000\u0000\u0000\u0000\u0000\u0000\u0000\u0000\u0000\u0000\u0000\u0000\u0000\u0000\u0000\u0000\u0000\u0000\u0000\u0000\u0000\u0000\u0000\u0000\u0000\u0000\u0000\u0000\u0000\u0000\u0000\u0000\u0000\u0000\u0000\u0000\u0000\u0000\u0000\u0000\u0000\u0000\u0000\u0000\u0000\u0000\u0000\u0000\u0000\u0000\u0000\u0000\u0000\u0000\u0000\u0000\u0000\u0000\u0000\u0000\u0000\u0000\u0000\u0000\u0000\u0000\u0000\u0000\u0000\u0000\u0000\u0000\u0000\u0000\u0000\u0000\u0000\u0000\u0000\u0000\u0000\u0000",
