{
  "AcquisitionMatrixPE": 70,
  "AcquisitionNumber": 1,
  "AcquisitionTime": "12:10:14.520000",
  "BandwidthPerPixelPhaseEncode": 51.948,
  "BaseResolution": 70,
  "BodyPartExamined": "HEAD",
  "CoilCombinationMethod": "Sum of Squares",
  "ConsistencyInfo": "N4_VE11C_LATEST_20160120",
  "ConversionSoftware": "dcm2niix",
  "ConversionSoftwareVersion": "v1.0.20220720",
  "DerivedVendorReportedEchoSpacing": 0.000550001,
  "DeviceSerialNumber": "66061",
  "DwellTime": 3.3e-06,
  "EchoTime": 0.022,
  "EchoTrainLength": 35,
  "EffectiveEchoSpacing": 0.000275,
  "FlipAngle": 90,
  "HeudiconvVersion": "1.1.1",
  "ImageOrientationPatientDICOM": [0.998762, 0.00925354, 0.0488763, -0.00122027, 0.986808, -0.161892],
  "ImageOrientationText": "Tra>Cor(-9.3)>Sag(2.9)",
  "ImageType": [
    "ORIGINAL",
    "PRIMARY",
    "M",
    "ND",
    "NORM",
    "MOSAIC"
],
  "ImagingFrequency": 123.254,
  "InPlanePhaseEncodingDirectionDICOM": "COL",
  "InstitutionAddress": "Street StreetNo,City/1c4204/,District,KR,ZIP",
  "InstitutionName": "SKKU",
  "InstitutionalDepartmentName": "Department",
  "MRAcquisitionType": "2D",
  "MagneticFieldStrength": 3,
  "Manufacturer": "Siemens",
  "ManufacturersModelName": "Prisma",
  "MatrixCoilMode": "GRAPPA",
  "Modality": "MR",
  "NonlinearGradientCorrection": false,
  "ParallelReductionFactorInPlane": 2,
  "PartialFourier": 1,
  "PatientPosition": "HFS",
  "PercentPhaseFOV": 100,
  "PercentSampling": 100,
  "PhaseEncodingDirection": "j-",
  "PhaseEncodingSteps": 70,
  "PhaseResolution": 1,
  "PixelBandwidth": 2165,
  "ProcedureStepDescription": "Head^PI:Others",
  "ProtocolName": "BOLD_ep2d_3x3x3_response1",
  "PulseSequenceDetails": "%SiemensSeq%\\ep2d_pace",
  "ReceiveCoilActiveElements": "HC1-7",
  "ReceiveCoilName": "HeadNeck_64",
  "ReconMatrixPE": 70,
  "RefLinesPE": 24,
  "RepetitionTime": 2,
  "SAR": 0.138449,
  "ScanOptions": "FS",
  "ScanningSequence": "EP",
  "SequenceName": "*epfid2d1_70",
  "SequenceVariant": "SK",
  "SeriesDescription": "BOLD_ep2d_3x3x3_response1",
  "SeriesNumber": 6,
  "ShimSetting": [5063, 3730, 4439, 389, -98, -52, 117, 1],
  "SliceThickness": 3,
  "SliceTiming": [0.99, 0, 1.0375, 0.0475, 1.085, 0.095, 1.1325, 0.1425, 1.18, 0.19, 1.2275, 0.2375, 1.2725, 0.2825, 1.32, 0.33, 1.3675, 0.3775, 1.415, 0.425, 1.4625, 0.4725, 1.51, 0.52, 1.5575, 0.5675, 1.6025, 0.6125, 1.65, 0.66, 1.6975, 0.7075, 1.745, 0.755, 1.7925, 0.8025, 1.84, 0.85, 1.8875, 0.8975, 1.9325, 0.9425],
  "SoftwareVersions": "syngo MR E11",
  "SpacingBetweenSlices": 3,
  "StationName": "AWP66061",
  "TaskName": "response",
  "TotalReadoutTime": 0.018975,
  "TxRefAmp": 248.358,
  "dcmmeta_affine": [
    [-2.996285915374756, -0.0036608048249036074, 0.14918877184391022, 102.98246765136719],
    [-0.027760615572333336, 2.960422992706299, -0.48489710688591003, -83.11187744140625],
    [0.14662893116474152, 0.4856773316860199, 2.956791639328003, -74.35111999511719],
    [0.0, 0.0, 0.0, 1.0]
],
  "dcmmeta_reorient_transform": [
    [0.0, -1.0, 0.0, 69.0],
    [1.0, 0.0, 0.0, 0.0],
    [0.0, 0.0, -1.0, 41.0],
    [0.0, 0.0, 0.0, 1.0]
],
  "dcmmeta_shape": [70, 70, 42, 341],
  "dcmmeta_slice_dim": 2,
  "dcmmeta_version": 0.6,
  "global": {
    "const": {
      "AcquisitionMatrix": [70, 0, 0, 70],
      "AngioFlag": "N",
      "BitsAllocated": 16,
      "BitsStored": 12,
      "BodyPartExamined": "HEAD",
      "Columns": 490,
      "EchoNumbers": 1,
      "EchoTime": 22.0,
      "EchoTrainLength": 35,
      "FlipAngle": 90.0,
      "HighBit": 11,
      "ImageOrientationPatient": [0.99876197291562, 0.00925353845197, 0.04887630800117, -0.0012202683072, 0.98680765464333, -0.1618924447977],
      "ImagePositionPatient": [-737.29788444697, -728.79507521072, 151.58923755964],
      "ImageType": [
        "ORIGINAL",
        "PRIMARY",
        "M",
        "ND",
        "NORM",
        "MOSAIC"
],
      "ImagedNucleus": "1H",
      "ImagingFrequency": 123.254404,
      "InPlanePhaseEncodingDirection": "COL",
      "MRAcquisitionType": "2D",
      "MagneticFieldStrength": 3.0,
      "Manufacturer": "SIEMENS",
      "ManufacturerModelName": "Prisma",
      "Modality": "MR",
      "NumberOfAverages": 1.0,
      "NumberOfPhaseEncodingSteps": 70,
      "PercentPhaseFieldOfView": 100.0,
      "PercentSampling": 100.0,
      "PerformedProcedureStepStartTime": "113237.762000",
      "PhotometricInterpretation": "MONOCHROME2",
      "PixelBandwidth": 2165.0,
      "PixelRepresentation": 0,
      "PixelSpacing": [3.0, 3.0],
      "ProtocolName": "BOLD_ep2d_3x3x3_response1",
      "RepetitionTime": 2000.0,
      "Rows": 490,
      "SAR": 0.13844885326619,
      "SamplesPerPixel": 1,
      "ScanOptions": "FS",
      "ScanningSequence": "EP",
      "SequenceName": "*epfid2d1_70",
      "SequenceVariant": "SK",
      "SeriesDescription": "BOLD_ep2d_3x3x3_response1",
      "SeriesNumber": 6,
      "SeriesTime": "121028.427000",
      "SliceLocation": 68.27458038009,
      "SliceThickness": 3.0,
      "SmallestImagePixelValue": 0,
      "SoftwareVersions": "syngo MR E11",
      "SpacingBetweenSlices": 2.9999999150736,
      "SpecificCharacterSet": "ISO_IR 100",
      "StudyID": "1",
      "StudyTime": "113237.707000",
      "TransmitCoilName": "Body",
      "VariableFlipAngleFlag": "N",
      "WindowCenterWidthExplanation": "Algo1",
      "dBdt": 0.0},
    "slices": {}
  },
  "time": {
    "samples": {
      "AcquisitionNumber": [1, 2, 3, 4, 5, 6, 7, 8, 9, 10, 11, 12, 13, 14, 15, 16, 17, 18, 19, 20, 21, 22, 23, 24, 25, 26, 27, 28, 29, 30, 31, 32, 33, 34, 35, 36, 37, 38, 39, 40, 41, 42, 43, 44, 45, 46, 47, 48, 49, 50, 51, 52, 53, 54, 55, 56, 57, 58, 59, 60, 61, 62, 63, 64, 65, 66, 67, 68, 69, 70, 71, 72, 73, 74, 75, 76, 77, 78, 79, 80, 81, 82, 83, 84, 85, 86, 87, 88, 89, 90, 91, 92, 93, 94, 95, 96, 97, 98, 99, 100, 101, 102, 103, 104, 105, 106, 107, 108, 109, 110, 111, 112, 113, 114, 115, 116, 117, 118, 119, 120, 121, 122, 123, 124, 125, 126, 127, 128, 129, 130, 131, 132, 133, 134, 135, 136, 137, 138, 139, 140, 141, 142, 143, 144, 145, 146, 147, 148, 149, 150, 151, 152, 153, 154, 155, 156, 157, 158, 159, 160, 161, 162, 163, 164, 165, 166, 167, 168, 169, 170, 171, 172, 173, 174, 175, 176, 177, 178, 179, 180, 181, 182, 183, 184, 185, 186, 187, 188, 189, 190, 191, 192, 193, 194, 195, 196, 197, 198, 199, 200, 201, 202, 203, 204, 205, 206, 207, 208, 209, 210, 211, 212, 213, 214, 215, 216, 217, 218, 219, 220, 221, 222, 223, 224, 225, 226, 227, 228, 229, 230, 231, 232, 233, 234, 235, 236, 237, 238, 239, 240, 241, 242, 243, 244, 245, 246, 247, 248, 249, 250, 251, 252, 253, 254, 255, 256, 257, 258, 259, 260, 261, 262, 263, 264, 265, 266, 267, 268, 269, 270, 271, 272, 273, 274, 275, 276, 277, 278, 279, 280, 281, 282, 283, 284, 285, 286, 287, 288, 289, 290, 291, 292, 293, 294, 295, 296, 297, 298, 299, 300, 301, 302, 303, 304, 305, 306, 307, 308, 309, 310, 311, 312, 313, 314, 315, 316, 317, 318, 319, 320, 321, 322, 323, 324, 325, 326, 327, 328, 329, 330, 331, 332, 333, 334, 335, 336, 337, 338, 339, 340, 341],
      "AcquisitionTime": ["121014.520000", "121016.520000", "121018.520000", "121020.520000", "121022.520000", "121024.520000", "121026.520000", "121028.520000", "121030.520000", "121032.520000", "121034.520000", "121036.520000", "121038.520000", "121040.520000", "121042.520000", "121044.520000", "121046.520000", "121048.520000", "121050.520000", "121052.520000", "121054.520000", "121056.520000", "121058.520000", "121100.520000", "121102.520000", "121104.520000", "121106.520000", "121108.520000", "121110.520000", "121112.520000", "121114.520000", "121116.520000", "121118.520000", "121120.520000", "121122.520000", "121124.520000", "121126.520000", "121128.520000", "121130.520000", "121132.520000", "121134.520000", "121136.520000", "121138.520000", "121140.520000", "121142.520000", "121144.520000", "121146.520000", "121148.520000", "121150.520000", "121152.520000", "121154.520000", "121156.520000", "121158.520000", "121200.520000", "121202.520000", "121204.520000", "121206.520000", "121208.520000", "121210.520000", "121212.520000", "121214.520000", "121216.520000", "121218.520000", "121220.520000", "121222.520000", "121224.520000", "121226.520000", "121228.520000", "121230.520000", "121232.520000", "121234.520000", "121236.520000", "121238.520000", "121240.520000", "121242.520000", "121244.520000", "121246.520000", "121248.520000", "121250.520000", "121252.520000", "121254.520000", "121256.520000", "121258.520000", "121300.520000", "121302.520000", "121304.520000", "121306.520000", "121308.520000", "121310.520000", "121312.520000", "121314.520000", "121316.520000", "121318.520000", "121320.520000", "121322.520000", "121324.520000", "121326.520000", "121328.520000", "121330.520000", "121332.520000", "121334.520000", "121336.520000", "121338.520000", "121340.520000", "121342.520000", "121344.520000", "121346.520000", "121348.520000", "121350.520000", "121352.520000", "121354.520000", "121356.520000", "121358.520000", "121400.520000", "121402.520000", "121404.520000", "121406.520000", "121408.520000", "121410.520000", "121412.520000", "121414.520000", "121416.520000", "121418.520000", "121420.520000", "121422.520000", "121424.520000", "121426.520000", "121428.520000", "121430.520000", "121432.520000", "121434.520000", "121436.520000", "121438.520000", "121440.520000", "121442.520000", "121444.520000", "121446.520000", "121448.520000", "121450.520000", "121452.520000", "121454.520000", "121456.520000", "121458.520000", "121500.520000", "121502.520000", "121504.520000", "121506.520000", "121508.520000", "121510.520000", "121512.520000", "121514.520000", "121516.520000", "121518.520000", "121520.520000", "121522.520000", "121524.520000", "121526.520000", "121528.520000", "121530.520000", "121532.520000", "121534.520000", "121536.520000", "121538.520000", "121540.520000", "121542.520000", "121544.520000", "121546.520000", "121548.520000", "121550.520000", "121552.520000", "121554.520000", "121556.520000", "121558.520000", "121600.520000", "121602.520000", "121604.520000", "121606.520000", "121608.520000", "121610.520000", "121612.520000", "121614.520000", "121616.520000", "121618.520000", "121620.520000", "121622.520000", "121624.520000", "121626.520000", "121628.520000", "121630.520000", "121632.520000", "121634.520000", "121636.520000", "121638.520000", "121640.520000", "121642.520000", "121644.520000", "121646.520000", "121648.520000", "121650.520000", "121652.520000", "121654.520000", "121656.520000", "121658.520000", "121700.520000", "121702.520000", "121704.520000", "121706.520000", "121708.520000", "121710.520000", "121712.520000", "121714.520000", "121716.520000", "121718.520000", "121720.520000", "121722.520000", "121724.520000", "121726.520000", "121728.520000", "121730.520000", "121732.520000", "121734.520000", "121736.520000", "121738.520000", "121740.520000", "121742.520000", "121744.520000", "121746.520000", "121748.520000", "121750.520000", "121752.520000", "121754.520000", "121756.520000", "121758.520000", "121800.520000", "121802.520000", "121804.520000", "121806.520000", "121808.520000", "121810.520000", "121812.520000", "121814.520000", "121816.520000", "121818.520000", "121820.520000", "121822.520000", "121824.520000", "121826.520000", "121828.520000", "121830.520000", "121832.520000", "121834.520000", "121836.520000", "121838.520000", "121840.520000", "121842.520000", "121844.520000", "121846.520000", "121848.520000", "121850.520000", "121852.520000", "121854.520000", "121856.520000", "121858.520000", "121900.520000", "121902.520000", "121904.520000", "121906.520000", "121908.520000", "121910.520000", "121912.520000", "121914.520000", "121916.520000", "121918.520000", "121920.520000", "121922.520000", "121924.520000", "121926.520000", "121928.520000", "121930.520000", "121932.520000", "121934.520000", "121936.520000", "121938.520000", "121940.520000", "121942.520000", "121944.520000", "121946.520000", "121948.520000", "121950.520000", "121952.520000", "121954.520000", "121956.520000", "121958.520000", "122000.520000", "122002.520000", "122004.520000", "122006.520000", "122008.520000", "122010.520000", "122012.520000", "122014.520000", "122016.520000", "122018.520000", "122020.520000", "122022.520000", "122024.520000", "122026.520000", "122028.520000", "122030.520000", "122032.520000", "122034.520000", "122036.520000", "122038.520000", "122040.520000", "122042.520000", "122044.520000", "122046.520000", "122048.520000", "122050.520000", "122052.520000", "122054.520000", "122056.520000", "122058.520000", "122100.520000", "122102.520000", "122104.520000", "122106.520000", "122108.520000", "122110.520000", "122112.520000", "122114.520000", "122116.520000", "122118.520000", "122120.520000", "122122.520000", "122124.520000", "122126.520000", "122128.520000", "122130.520000", "122132.520000", "122134.520000"],
      "ContentTime": ["121028.431000", "121028.434000", "121028.437000", "121028.440000", "121028.442000", "121028.445000", "121028.448000", "121108.426000", "121108.435000", "121108.438000", "121108.441000", "121108.448000", "121108.451000", "121108.454000", "121108.456000", "121108.459000", "121108.462000", "121108.465000", "121108.468000", "121108.471000", "121108.485000", "121108.487000", "121108.490000", "121108.493000", "121108.496000", "121108.499000", "121108.501000", "121148.426000", "121148.429000", "121148.431000", "121148.434000", "121148.437000", "121148.440000", "121148.453000", "121148.456000", "121148.458000", "121148.469000", "121148.472000", "121148.475000", "121148.477000", "121148.480000", "121148.483000", "121148.486000", "121148.489000", "121148.491000", "121148.494000", "121148.497000", "121228.426000", "121228.429000", "121228.431000", "121228.434000", "121228.437000", "121228.440000", "121228.443000", "121228.445000", "121228.448000", "121228.451000", "121228.454000", "121228.457000", "121228.459000", "121228.462000", "121228.465000", "121228.468000", "121228.470000", "121228.473000", "121228.476000", "121228.484000", "121308.426000", "121308.429000", "121308.431000", "121308.434000", "121308.437000", "121308.440000", "121308.443000", "121308.446000", "121308.448000", "121308.451000", "121308.454000", "121308.457000", "121308.459000", "121308.462000", "121308.465000", "121308.475000", "121308.477000", "121308.480000", "121308.483000", "121308.486000", "121348.426000", "121348.429000", "121348.431000", "121348.434000", "121348.437000", "121348.440000", "121348.442000", "121348.445000", "121348.448000", "121348.451000", "121348.453000", "121348.461000", "121348.464000", "121348.466000", "121348.469000", "121348.472000", "121348.475000", "121348.478000", "121348.480000", "121348.483000", "121428.426000", "121428.429000", "121428.432000", "121428.435000", "121428.437000", "121428.440000", "121428.443000", "121428.446000", "121428.448000", "121428.451000", "121428.454000", "121428.457000", "121428.460000", "121428.462000", "121428.465000", "121428.468000", "121428.471000", "121428.473000", "121428.476000", "121428.479000", "121508.426000", "121508.429000", "121508.432000", "121508.434000", "121508.437000", "121508.446000", "121508.449000", "121508.452000", "121508.455000", "121508.457000", "121508.460000", "121508.463000", "121508.466000", "121508.469000", "121508.471000", "121508.474000", "121508.477000", "121508.480000", "121508.482000", "121508.485000", "121548.426000", "121548.429000", "121548.432000", "121548.435000", "121548.437000", "121548.440000", "121548.443000", "121548.446000", "121548.448000", "121548.451000", "121548.454000", "121548.457000", "121548.460000", "121548.463000", "121548.465000", "121548.468000", "121548.471000", "121548.474000", "121548.476000", "121548.479000", "121628.426000", "121628.429000", "121628.431000", "121628.453000", "121628.456000", "121628.459000", "121628.461000", "121628.464000", "121628.467000", "121628.470000", "121628.473000", "121628.476000", "121628.479000", "121628.481000", "121628.484000", "121628.487000", "121628.490000", "121628.493000", "121628.495000", "121628.498000", "121708.435000", "121708.438000", "121708.441000", "121708.444000", "121708.447000", "121708.449000", "121708.452000", "121708.455000", "121708.458000", "121708.461000", "121708.463000", "121708.466000", "121708.469000", "121708.482000", "121708.484000", "121708.487000", "121708.490000", "121708.493000", "121708.496000", "121708.498000", "121748.426000", "121748.429000", "121748.431000", "121748.434000", "121748.437000", "121748.440000", "121748.443000", "121748.445000", "121748.448000", "121748.458000", "121748.461000", "121748.464000", "121748.466000", "121748.469000", "121748.472000", "121748.475000", "121748.478000", "121748.480000", "121748.483000", "121748.486000", "121828.426000", "121828.429000", "121828.431000", "121828.434000", "121828.437000", "121828.440000", "121828.443000", "121828.445000", "121828.448000", "121828.451000", "121828.454000", "121828.457000", "121828.460000", "121828.465000", "121828.468000", "121828.471000", "121828.474000", "121828.476000", "121828.479000", "121828.482000", "121908.426000", "121908.429000", "121908.432000", "121908.435000", "121908.437000", "121908.440000", "121908.443000", "121908.446000", "121908.448000", "121908.451000", "121908.454000", "121908.457000", "121908.460000", "121908.462000", "121908.465000", "121908.468000", "121908.471000", "121908.474000", "121908.476000", "121908.479000", "121948.426000", "121948.429000", "121948.432000", "121948.435000", "121948.437000", "121948.440000", "121948.443000", "121948.446000", "121948.449000", "121948.452000", "121948.454000", "121948.457000", "121948.460000", "121948.463000", "121948.466000", "121948.469000", "121948.471000", "121948.474000", "121948.477000", "121948.480000", "122028.426000", "122028.429000", "122028.432000", "122028.435000", "122028.437000", "122028.440000", "122028.443000", "122028.446000", "122028.449000", "122028.451000", "122028.454000", "122028.457000", "122028.460000", "122028.463000", "122028.465000", "122028.468000", "122028.471000", "122028.474000", "122028.476000", "122028.480000", "122108.426000", "122108.429000", "122108.431000", "122108.435000", "122108.437000", "122108.440000", "122108.443000", "122108.446000", "122108.449000", "122108.452000", "122108.455000", "122108.458000", "122108.461000", "122108.464000", "122108.467000", "122108.469000", "122108.472000", "122108.475000", "122108.478000", "122108.481000", "122135.966000", "122135.969000", "122135.972000", "122135.975000", "122135.978000", "122135.981000", "122135.984000", "122135.987000", "122135.989000", "122135.992000", "122135.995000", "122135.998000", "122136.002000", "122136.005000"],
      "DataSetTrailingPadding": [
        "\u0000\u0000\u0000\u0000\u0000\u0000\u0000\u0000\u0000\u0000\u0000\u0000\u0000\u0000\u0000\u0000\u0000\u0000\u0000\u0000\u0000\u0000\u0000\u0000\u0000\u0000\u0000\u0000\u0000\u0000\u0000\u0000\u0000\u0000\u0000\u0000\u0000\u0000\u0000\u0000\u0000\u0000\u0000\u0000\u0000\u0000\u0000\u0000\u0000\u0000",
        "\u0000\u0000\u0000\u0000\u0000\u0000\u0000\u0000\u0000\u0000\u0000\u0000\u0000\u0000\u0000\u0000\u0000\u0000\u0000\u0000\u0000\u0000\u0000\u0000\u0000\u0000\u0000\u0000\u0000\u0000\u0000\u0000\u0000\u0000\u0000\u0000\u0000\u0000\u0000\u0000\u0000\u0000\u0000\u0000\u0000\u0000\u0000\u0000\u0000\u0000",
        "\u0000\u0000\u0000\u0000\u0000\u0000\u0000\u0000\u0000\u0000\u0000\u0000\u0000\u0000\u0000\u0000\u0000\u0000\u0000\u0000\u0000\u0000\u0000\u0000\u0000\u0000\u0000\u0000\u0000\u0000\u0000\u0000\u0000\u0000\u0000\u0000\u0000\u0000\u0000\u0000\u0000\u0000\u0000\u0000\u0000\u0000\u0000\u0000\u0000\u0000",
        "\u0000\u0000\u0000\u0000\u0000\u0000\u0000\u0000\u0000\u0000\u0000\u0000\u0000\u0000\u0000\u0000\u0000\u0000\u0000\u0000\u0000\u0000\u0000\u0000\u0000\u0000\u0000\u0000\u0000\u0000\u0000\u0000\u0000\u0000\u0000\u0000\u0000\u0000\u0000\u0000\u0000\u0000\u0000\u0000\u0000\u0000\u0000\u0000\u0000\u0000",
        "\u0000\u0000\u0000\u0000\u0000\u0000\u0000\u0000\u0000\u0000\u0000\u0000\u0000\u0000\u0000\u0000\u0000\u0000\u0000\u0000\u0000\u0000\u0000\u0000\u0000\u0000\u0000\u0000\u0000\u0000\u0000\u0000\u0000\u0000\u0000\u0000\u0000\u0000\u0000\u0000\u0000\u0000\u0000\u0000\u0000\u0000\u0000\u0000",
        "\u0000\u0000\u0000\u0000\u0000\u0000\u0000\u0000\u0000\u0000\u0000\u0000\u0000\u0000\u0000\u0000\u0000\u0000\u0000\u0000\u0000\u0000\u0000\u0000\u0000\u0000\u0000\u0000\u0000\u0000\u0000\u0000\u0000\u0000\u0000\u0000\u0000\u0000\u0000\u0000\u0000\u0000\u0000\u0000\u0000\u0000\u0000\u0000",
        "\u0000\u0000\u0000\u0000\u0000\u0000\u0000\u0000\u0000\u0000\u0000\u0000\u0000\u0000\u0000\u0000\u0000\u0000\u0000\u0000\u0000\u0000\u0000\u0000\u0000\u0000\u0000\u0000\u0000\u0000\u0000\u0000\u0000\u0000\u0000\u0000\u0000\u0000\u0000\u0000\u0000\u0000\u0000\u0000\u0000\u0000\u0000\u0000",
        "\u0000\u0000\u0000\u0000\u0000\u0000\u0000\u0000\u0000\u0000\u0000\u0000\u0000\u0000\u0000\u0000\u0000\u0000\u0000\u0000\u0000\u0000\u0000\u0000\u0000\u0000\u0000\u0000\u0000\u0000\u0000\u0000\u0000\u0000\u0000\u0000\u0000\u0000\u0000\u0000\u0000\u0000\u0000\u0000\u0000\u0000\u0000\u0000",
        "\u0000\u0000\u0000\u0000\u0000\u0000\u0000\u0000\u0000\u0000\u0000\u0000\u0000\u0000\u0000\u0000\u0000\u0000\u0000\u0000\u0000\u0000\u0000\u0000\u0000\u0000\u0000\u0000\u0000\u0000\u0000\u0000\u0000\u0000\u0000\u0000\u0000\u0000\u0000\u0000\u0000\u0000\u0000\u0000\u0000\u0000\u0000\u0000",
        "\u0000\u0000\u0000\u0000\u0000\u0000\u0000\u0000\u0000\u0000\u0000\u0000\u0000\u0000\u0000\u0000\u0000\u0000\u0000\u0000\u0000\u0000\u0000\u0000\u0000\u0000\u0000\u0000\u0000\u0000\u0000\u0000\u0000\u0000\u0000\u0000\u0000\u0000\u0000\u0000\u0000\u0000\u0000\u0000\u0000\u0000\u0000\u0000",
        "\u0000\u0000\u0000\u0000\u0000\u0000\u0000\u0000\u0000\u0000\u0000\u0000\u0000\u0000\u0000\u0000\u0000\u0000\u0000\u0000\u0000\u0000\u0000\u0000\u0000\u0000\u0000\u0000\u0000\u0000\u0000\u0000\u0000\u0000\u0000\u0000\u0000\u0000\u0000\u0000\u0000\u0000\u0000\u0000\u0000\u0000\u0000\u0000",
        "\u0000\u0000\u0000\u0000\u0000\u0000\u0000\u0000\u0000\u0000\u0000\u0000\u0000\u0000\u0000\u0000\u0000\u0000\u0000\u0000\u0000\u0000\u0000\u0000\u0000\u0000\u0000\u0000\u0000\u0000\u0000\u0000\u0000\u0000\u0000\u0000\u0000\u0000\u0000\u0000\u0000\u0000\u0000\u0000\u0000\u0000\u0000\u0000",
        "\u0000\u0000\u0000\u0000\u0000\u0000\u0000\u0000\u0000\u0000\u0000\u0000\u0000\u0000\u0000\u0000\u0000\u0000\u0000\u0000\u0000\u0000\u0000\u0000\u0000\u0000\u0000\u0000\u0000\u0000\u0000\u0000\u0000\u0000\u0000\u0000\u0000\u0000\u0000\u0000\u0000\u0000\u0000\u0000\u0000\u0000\u0000\u0000",
        "\u0000\u0000\u0000\u0000\u0000\u0000\u0000\u0000\u0000\u0000\u0000\u0000\u0000\u0000\u0000\u0000\u0000\u0000\u0000\u0000\u0000\u0000\u0000\u0000\u0000\u0000\u0000\u0000\u0000\u0000\u0000\u0000\u0000\u0000\u0000\u0000\u0000\u0000\u0000\u0000\u0000\u0000\u0000\u0000\u0000\u0000\u0000\u0000",
        "\u0000\u0000\u0000\u0000\u0000\u0000\u0000\u0000\u0000\u0000\u0000\u0000\u0000\u0000\u0000\u0000\u0000\u0000\u0000\u0000\u0000\u0000\u0000\u0000\u0000\u0000\u0000\u0000\u0000\u0000\u0000\u0000\u0000\u0000\u0000\u0000\u0000\u0000\u0000\u0000\u0000\u0000\u0000\u0000\u0000\u0000\u0000\u0000",
        "\u0000\u0000\u0000\u0000\u0000\u0000\u0000\u0000\u0000\u0000\u0000\u0000\u0000\u0000\u0000\u0000\u0000\u0000\u0000\u0000\u0000\u0000\u0000\u0000\u0000\u0000\u0000\u0000\u0000\u0000\u0000\u0000\u0000\u0000\u0000\u0000\u0000\u0000\u0000\u0000\u0000\u0000\u0000\u0000\u0000\u0000\u0000\u0000",
        "\u0000\u0000\u0000\u0000\u0000\u0000\u0000\u0000\u0000\u0000\u0000\u0000\u0000\u0000\u0000\u0000\u0000\u0000\u0000\u0000\u0000\u0000\u0000\u0000\u0000\u0000\u0000\u0000\u0000\u0000\u0000\u0000\u0000\u0000\u0000\u0000\u0000\u0000\u0000\u0000\u0000\u0000\u0000\u0000\u0000\u0000\u0000\u0000",
        "\u0000\u0000\u0000\u0000\u0000\u0000\u0000\u0000\u0000\u0000\u0000\u0000\u0000\u0000\u0000\u0000\u0000\u0000\u0000\u0000\u0000\u0000\u0000\u0000\u0000\u0000\u0000\u0000\u0000\u0000\u0000\u0000\u0000\u0000\u0000\u0000\u0000\u0000\u0000\u0000\u0000\u0000\u0000\u0000\u0000\u0000\u0000\u0000",
        "\u0000\u0000\u0000\u0000\u0000\u0000\u0000\u0000\u0000\u0000\u0000\u0000\u0000\u0000\u0000\u0000\u0000\u0000\u0000\u0000\u0000\u0000\u0000\u0000\u0000\u0000\u0000\u0000\u0000\u0000\u0000\u0000\u0000\u0000\u0000\u0000\u0000\u0000\u0000\u0000\u0000\u0000\u0000\u0000\u0000\u0000\u0000\u0000",
        "\u0000\u0000\u0000\u0000\u0000\u0000\u0000\u0000\u0000\u0000\u0000\u0000\u0000\u0000\u0000\u0000\u0000\u0000\u0000\u0000\u0000\u0000\u0000\u0000\u0000\u0000\u0000\u0000\u0000\u0000\u0000\u0000\u0000\u0000\u0000\u0000\u0000\u0000\u0000\u0000\u0000\u0000\u0000\u0000\u0000\u0000\u0000\u0000",
        "\u0000\u0000\u0000\u0000\u0000\u0000\u0000\u0000\u0000\u0000\u0000\u0000\u0000\u0000\u0000\u0000\u0000\u0000\u0000\u0000\u0000\u0000\u0000\u0000\u0000\u0000\u0000\u0000\u0000\u0000\u0000\u0000\u0000\u0000\u0000\u0000\u0000\u0000\u0000\u0000\u0000\u0000\u0000\u0000\u0000\u0000\u0000\u0000",
        "\u0000\u0000\u0000\u0000\u0000\u0000\u0000\u0000\u0000\u0000\u0000\u0000\u0000\u0000\u0000\u0000\u0000\u0000\u0000\u0000\u0000\u0000\u0000\u0000\u0000\u0000\u0000\u0000\u0000\u0000\u0000\u0000\u0000\u0000\u0000\u0000\u0000\u0000\u0000\u0000\u0000\u0000\u0000\u0000\u0000\u0000\u0000\u0000",
        "\u0000\u0000\u0000\u0000\u0000\u0000\u0000\u0000\u0000\u0000\u0000\u0000\u0000\u0000\u0000\u0000\u0000\u0000\u0000\u0000\u0000\u0000\u0000\u0000\u0000\u0000\u0000\u0000\u0000\u0000\u0000\u0000\u0000\u0000\u0000\u0000\u0000\u0000\u0000\u0000\u0000\u0000\u0000\u0000\u0000\u0000\u0000\u0000",
        "\u0000\u0000\u0000\u0000\u0000\u0000\u0000\u0000\u0000\u0000\u0000\u0000\u0000\u0000\u0000\u0000\u0000\u0000\u0000\u0000\u0000\u0000\u0000\u0000\u0000\u0000\u0000\u0000\u0000\u0000\u0000\u0000\u0000\u0000\u0000\u0000\u0000\u0000\u0000\u0000\u0000\u0000\u0000\u0000\u0000\u0000\u0000\u0000",
        "\u0000\u0000\u0000\u0000\u0000\u0000\u0000\u0000\u0000\u0000\u0000\u0000\u0000\u0000\u0000\u0000\u0000\u0000\u0000\u0000\u0000\u0000\u0000\u0000\u0000\u0000\u0000\u0000\u0000\u0000\u0000\u0000\u0000\u0000\u0000\u0000\u0000\u0000\u0000\u0000\u0000\u0000\u0000\u0000\u0000\u0000\u0000\u0000",
        "\u0000\u0000\u0000\u0000\u0000\u0000\u0000\u0000\u0000\u0000\u0000\u0000\u0000\u0000\u0000\u0000\u0000\u0000\u0000\u0000\u0000\u0000\u0000\u0000\u0000\u0000\u0000\u0000\u0000\u0000\u0000\u0000\u0000\u0000\u0000\u0000\u0000\u0000\u0000\u0000\u0000\u0000\u0000\u0000\u0000\u0000\u0000\u0000\u0000\u0000",
        "\u0000\u0000\u0000\u0000\u0000\u0000\u0000\u0000\u0000\u0000\u0000\u0000\u0000\u0000\u0000\u0000\u0000\u0000\u0000\u0000\u0000\u0000\u0000\u0000\u0000\u0000\u0000\u0000\u0000\u0000\u0000\u0000\u0000\u0000\u0000\u0000\u0000\u0000\u0000\u0000\u0000\u0000\u0000\u0000\u0000\u0000\u0000\u0000",
        "\u0000\u0000\u0000\u0000\u0000\u0000\u0000\u0000\u0000\u0000\u0000\u0000\u0000\u0000\u0000\u0000\u0000\u0000\u0000\u0000\u0000\u0000\u0000\u0000\u0000\u0000\u0000\u0000\u0000\u0000\u0000\u0000\u0000\u0000\u0000\u0000\u0000\u0000\u0000\u0000\u0000\u0000\u0000\u0000\u0000\u0000\u0000\u0000\u0000\u0000",
        "\u0000\u0000\u0000\u0000\u0000\u0000\u0000\u0000\u0000\u0000\u0000\u0000\u0000\u0000\u0000\u0000\u0000\u0000\u0000\u0000\u0000\u0000\u0000\u0000\u0000\u0000\u0000\u0000\u0000\u0000\u0000\u0000\u0000\u0000\u0000\u0000\u0000\u0000\u0000\u0000\u0000\u0000\u0000\u0000\u0000\u0000\u0000\u0000\u0000\u0000",
        "\u0000\u0000\u0000\u0000\u0000\u0000\u0000\u0000\u0000\u0000\u0000\u0000\u0000\u0000\u0000\u0000\u0000\u0000\u0000\u0000\u0000\u0000\u0000\u0000\u0000\u0000\u0000\u0000\u0000\u0000\u0000\u0000\u0000\u0000\u0000\u0000\u0000\u0000\u0000\u0000\u0000\u0000\u0000\u0000\u0000\u0000\u0000\u0000\u0000\u0000",
        "\u0000\u0000\u0000\u0000\u0000\u0000\u0000\u0000\u0000\u0000\u0000\u0000\u0000\u0000\u0000\u0000\u0000\u0000\u0000\u0000\u0000\u0000\u0000\u0000\u0000\u0000\u0000\u0000\u0000\u0000\u0000\u0000\u0000\u0000\u0000\u0000\u0000\u0000\u0000\u0000\u0000\u0000\u0000\u0000\u0000\u0000\u0000\u0000\u0000\u0000",
        "\u0000\u0000\u0000\u0000\u0000\u0000\u0000\u0000\u0000\u0000\u0000\u0000\u0000\u0000\u0000\u0000\u0000\u0000\u0000\u0000\u0000\u0000\u0000\u0000\u0000\u0000\u0000\u0000\u0000\u0000\u0000\u0000\u0000\u0000\u0000\u0000\u0000\u0000\u0000\u0000\u0000\u0000\u0000\u0000\u0000\u0000\u0000\u0000\u0000\u0000",
        "\u0000\u0000\u0000\u0000\u0000\u0000\u0000\u0000\u0000\u0000\u0000\u0000\u0000\u0000\u0000\u0000\u0000\u0000\u0000\u0000\u0000\u0000\u0000\u0000\u0000\u0000\u0000\u0000\u0000\u0000\u0000\u0000\u0000\u0000\u0000\u0000\u0000\u0000\u0000\u0000\u0000\u0000\u0000\u0000\u0000\u0000\u0000\u0000\u0000\u0000",
        "\u0000\u0000\u0000\u0000\u0000\u0000\u0000\u0000\u0000\u0000\u0000\u0000\u0000\u0000\u0000\u0000\u0000\u0000\u0000\u0000\u0000\u0000\u0000\u0000\u0000\u0000\u0000\u0000\u0000\u0000\u0000\u0000\u0000\u0000\u0000\u0000\u0000\u0000\u0000\u0000\u0000\u0000\u0000\u0000\u0000\u0000\u0000\u0000\u0000\u0000",
        "\u0000\u0000\u0000\u0000\u0000\u0000\u0000\u0000\u0000\u0000\u0000\u0000\u0000\u0000\u0000\u0000\u0000\u0000\u0000\u0000\u0000\u0000\u0000\u0000\u0000\u0000\u0000\u0000\u0000\u0000\u0000\u0000\u0000\u0000\u0000\u0000\u0000\u0000\u0000\u0000\u0000\u0000\u0000\u0000\u0000\u0000\u0000\u0000\u0000\u0000",
        "\u0000\u0000\u0000\u0000\u0000\u0000\u0000\u0000\u0000\u0000\u0000\u0000\u0000\u0000\u0000\u0000\u0000\u0000\u0000\u0000\u0000\u0000\u0000\u0000\u0000\u0000\u0000\u0000\u0000\u0000\u0000\u0000\u0000\u0000\u0000\u0000\u0000\u0000\u0000\u0000\u0000\u0000\u0000\u0000\u0000\u0000\u0000\u0000",
        "\u0000\u0000\u0000\u0000\u0000\u0000\u0000\u0000\u0000\u0000\u0000\u0000\u0000\u0000\u0000\u0000\u0000\u0000\u0000\u0000\u0000\u0000\u0000\u0000\u0000\u0000\u0000\u0000\u0000\u0000\u0000\u0000\u0000\u0000\u0000\u0000\u0000\u0000\u0000\u0000\u0000\u0000\u0000\u0000\u0000\u0000\u0000\u0000",
