{
  "AcquisitionMatrixPE": 70,
  "AcquisitionNumber": 1,
  "AcquisitionTime": "11:38:24.277500",
  "BandwidthPerPixelPhaseEncode": 51.948,
  "BaseResolution": 70,
  "BodyPartExamined": "HEAD",
  "CoilCombinationMethod": "Sum of Squares",
  "ConsistencyInfo": "N4_VE11C_LATEST_20160120",
  "ConversionSoftware": "dcm2niix",
  "ConversionSoftwareVersion": "v1.0.20220720",
  "DerivedVendorReportedEchoSpacing": 0.000550001,
  "DeviceSerialNumber": "66061",
  "DwellTime": 3.3e-06,
  "EchoTime": 0.022,
  "EchoTrainLength": 35,
  "EffectiveEchoSpacing": 0.000275,
  "FlipAngle": 90,
  "HeudiconvVersion": "1.1.1",
  "ImageOrientationPatientDICOM": [0.998762, 0.00925354, 0.0488763, -0.00122027, 0.986808, -0.161892],
  "ImageOrientationText": "Tra>Cor(-9.3)>Sag(2.9)",
  "ImageType": [
    "ORIGINAL",
    "PRIMARY",
    "M",
    "ND",
    "NORM",
    "MOSAIC"
],
  "ImagingFrequency": 123.254,
  "InPlanePhaseEncodingDirectionDICOM": "COL",
  "InstitutionAddress": "Street StreetNo,City/1c4204/,District,KR,ZIP",
  "InstitutionName": "SKKU",
  "InstitutionalDepartmentName": "Department",
  "MRAcquisitionType": "2D",
  "MagneticFieldStrength": 3,
  "Manufacturer": "Siemens",
  "ManufacturersModelName": "Prisma",
  "MatrixCoilMode": "GRAPPA",
  "Modality": "MR",
  "NonlinearGradientCorrection": false,
  "ParallelReductionFactorInPlane": 2,
  "PartialFourier": 1,
  "PatientPosition": "HFS",
  "PercentPhaseFOV": 100,
  "PercentSampling": 100,
  "PhaseEncodingDirection": "j-",
  "PhaseEncodingSteps": 70,
  "PhaseResolution": 1,
  "PixelBandwidth": 2165,
  "ProcedureStepDescription": "Head^PI:Others",
  "ProtocolName": "BOLD_ep2d_3x3x3_dimension1",
  "PulseSequenceDetails": "%SiemensSeq%\\ep2d_pace",
  "ReceiveCoilActiveElements": "HC1-7",
  "ReceiveCoilName": "HeadNeck_64",
  "ReconMatrixPE": 70,
  "RefLinesPE": 24,
  "RepetitionTime": 2,
  "SAR": 0.138449,
  "ScanOptions": "FS",
  "ScanningSequence": "EP",
  "SequenceName": "*epfid2d1_70",
  "SequenceVariant": "SK",
  "SeriesDescription": "BOLD_ep2d_3x3x3_dimension1",
  "SeriesNumber": 4,
  "ShimSetting": [5063, 3730, 4439, 389, -98, -52, 117, 1],
  "SliceThickness": 3,
  "SliceTiming": [0.99, 0, 1.0375, 0.0475, 1.085, 0.095, 1.1325, 0.1425, 1.18, 0.19, 1.225, 0.235, 1.2725, 0.2825, 1.32, 0.33, 1.3675, 0.3775, 1.415, 0.425, 1.4625, 0.4725, 1.51, 0.52, 1.555, 0.565, 1.6025, 0.6125, 1.65, 0.66, 1.6975, 0.7075, 1.745, 0.755, 1.7925, 0.8025, 1.84, 0.85, 1.885, 0.895, 1.9325, 0.9425],
  "SoftwareVersions": "syngo MR E11",
  "SpacingBetweenSlices": 3,
  "StationName": "AWP66061",
  "TaskName": "dimension",
  "TotalReadoutTime": 0.018975,
  "TxRefAmp": 248.358,
  "dcmmeta_affine": [
    [-2.996285915374756, -0.0036608048249036074, 0.14918877184391022, 102.98246765136719],
    [-0.027760615572333336, 2.960422992706299, -0.48489710688591003, -83.11187744140625],
    [0.14662893116474152, 0.4856773316860199, 2.956791639328003, -74.35111999511719],
    [0.0, 0.0, 0.0, 1.0]
],
  "dcmmeta_reorient_transform": [
    [0.0, -1.0, 0.0, 69.0],
    [1.0, 0.0, 0.0, 0.0],
    [0.0, 0.0, -1.0, 41.0],
    [0.0, 0.0, 0.0, 1.0]
],
  "dcmmeta_shape": [70, 70, 42, 437],
  "dcmmeta_slice_dim": 2,
  "dcmmeta_version": 0.6,
  "global": {
    "const": {
      "AcquisitionMatrix": [70, 0, 0, 70],
      "AngioFlag": "N",
      "BitsAllocated": 16,
      "BitsStored": 12,
      "BodyPartExamined": "HEAD",
      "Columns": 490,
      "EchoNumbers": 1,
      "EchoTime": 22.0,
      "EchoTrainLength": 35,
      "FlipAngle": 90.0,
      "HighBit": 11,
      "ImageOrientationPatient": [0.99876197291562, 0.00925353845197, 0.04887630800117, -0.0012202683072, 0.98680765464333, -0.1618924447977],
      "ImagePositionPatient": [-737.29788444697, -728.79507521072, 151.58923755964],
      "ImageType": [
        "ORIGINAL",
        "PRIMARY",
        "M",
        "ND",
        "NORM",
        "MOSAIC"
],
      "ImagedNucleus": "1H",
      "ImagingFrequency": 123.254402,
      "InPlanePhaseEncodingDirection": "COL",
      "MRAcquisitionType": "2D",
      "MagneticFieldStrength": 3.0,
      "Manufacturer": "SIEMENS",
      "ManufacturerModelName": "Prisma",
      "Modality": "MR",
      "NumberOfAverages": 1.0,
      "NumberOfPhaseEncodingSteps": 70,
      "PercentPhaseFieldOfView": 100.0,
      "PercentSampling": 100.0,
      "PerformedProcedureStepStartTime": "113237.762000",
      "PhotometricInterpretation": "MONOCHROME2",
      "PixelBandwidth": 2165.0,
      "PixelRepresentation": 0,
      "PixelSpacing": [3.0, 3.0],
      "ProtocolName": "BOLD_ep2d_3x3x3_dimension1",
      "RepetitionTime": 2000.0,
      "Rows": 490,
      "SAR": 0.13844929810496,
      "SamplesPerPixel": 1,
      "ScanOptions": "FS",
      "ScanningSequence": "EP",
      "SequenceName": "*epfid2d1_70",
      "SequenceVariant": "SK",
      "SeriesDescription": "BOLD_ep2d_3x3x3_dimension1",
      "SeriesNumber": 4,
      "SeriesTime": "113907.539000",
      "SliceLocation": 68.27458038009,
      "SliceThickness": 3.0,
      "SmallestImagePixelValue": 0,
      "SoftwareVersions": "syngo MR E11",
      "SpacingBetweenSlices": 2.9999999150736,
      "SpecificCharacterSet": "ISO_IR 100",
      "StudyID": "1",
      "StudyTime": "113237.707000",
      "TransmitCoilName": "Body",
      "VariableFlipAngleFlag": "N",
      "WindowCenterWidthExplanation": "Algo1",
      "dBdt": 0.0},
    "slices": {}
  },
  "time": {
    "samples": {
      "AcquisitionNumber": [1, 2, 3, 4, 5, 6, 7, 8, 9, 10, 11, 12, 13, 14, 15, 16, 17, 18, 19, 20, 21, 22, 23, 24, 25, 26, 27, 28, 29, 30, 31, 32, 33, 34, 35, 36, 37, 38, 39, 40, 41, 42, 43, 44, 45, 46, 47, 48, 49, 50, 51, 52, 53, 54, 55, 56, 57, 58, 59, 60, 61, 62, 63, 64, 65, 66, 67, 68, 69, 70, 71, 72, 73, 74, 75, 76, 77, 78, 79, 80, 81, 82, 83, 84, 85, 86, 87, 88, 89, 90, 91, 92, 93, 94, 95, 96, 97, 98, 99, 100, 101, 102, 103, 104, 105, 106, 107, 108, 109, 110, 111, 112, 113, 114, 115, 116, 117, 118, 119, 120, 121, 122, 123, 124, 125, 126, 127, 128, 129, 130, 131, 132, 133, 134, 135, 136, 137, 138, 139, 140, 141, 142, 143, 144, 145, 146, 147, 148, 149, 150, 151, 152, 153, 154, 155, 156, 157, 158, 159, 160, 161, 162, 163, 164, 165, 166, 167, 168, 169, 170, 171, 172, 173, 174, 175, 176, 177, 178, 179, 180, 181, 182, 183, 184, 185, 186, 187, 188, 189, 190, 191, 192, 193, 194, 195, 196, 197, 198, 199, 200, 201, 202, 203, 204, 205, 206, 207, 208, 209, 210, 211, 212, 213, 214, 215, 216, 217, 218, 219, 220, 221, 222, 223, 224, 225, 226, 227, 228, 229, 230, 231, 232, 233, 234, 235, 236, 237, 238, 239, 240, 241, 242, 243, 244, 245, 246, 247, 248, 249, 250, 251, 252, 253, 254, 255, 256, 257, 258, 259, 260, 261, 262, 263, 264, 265, 266, 267, 268, 269, 270, 271, 272, 273, 274, 275, 276, 277, 278, 279, 280, 281, 282, 283, 284, 285, 286, 287, 288, 289, 290, 291, 292, 293, 294, 295, 296, 297, 298, 299, 300, 301, 302, 303, 304, 305, 306, 307, 308, 309, 310, 311, 312, 313, 314, 315, 316, 317, 318, 319, 320, 321, 322, 323, 324, 325, 326, 327, 328, 329, 330, 331, 332, 333, 334, 335, 336, 337, 338, 339, 340, 341, 342, 343, 344, 345, 346, 347, 348, 349, 350, 351, 352, 353, 354, 355, 356, 357, 358, 359, 360, 361, 362, 363, 364, 365, 366, 367, 368, 369, 370, 371, 372, 373, 374, 375, 376, 377, 378, 379, 380, 381, 382, 383, 384, 385, 386, 387, 388, 389, 390, 391, 392, 393, 394, 395, 396, 397, 398, 399, 400, 401, 402, 403, 404, 405, 406, 407, 408, 409, 410, 411, 412, 413, 414, 415, 416, 417, 418, 419, 420, 421, 422, 423, 424, 425, 426, 427, 428, 429, 430, 431, 432, 433, 434, 435, 436, 437],
      "AcquisitionTime": ["113824.277500", "113826.277500", "113828.277500", "113830.277500", "113832.277500", "113834.277500", "113836.277500", "113838.277500", "113840.277500", "113842.277500", "113844.277500", "113846.277500", "113848.277500", "113850.277500", "113852.277500", "113854.277500", "113856.277500", "113858.277500", "113900.277500", "113902.277500", "113904.277500", "113906.277500", "113908.277500", "113910.277500", "113912.277500", "113914.277500", "113916.277500", "113918.277500", "113920.277500", "113922.277500", "113924.277500", "113926.277500", "113928.277500", "113930.277500", "113932.277500", "113934.277500", "113936.277500", "113938.277500", "113940.277500", "113942.277500", "113944.277500", "113946.277500", "113948.277500", "113950.277500", "113952.277500", "113954.277500", "113956.277500", "113958.277500", "114000.277500", "114002.277500", "114004.277500", "114006.277500", "114008.277500", "114010.277500", "114012.277500", "114014.277500", "114016.277500", "114018.277500", "114020.277500", "114022.277500", "114024.277500", "114026.277500", "114028.277500", "114030.277500", "114032.277500", "114034.277500", "114036.277500", "114038.277500", "114040.277500", "114042.277500", "114044.277500", "114046.277500", "114048.277500", "114050.277500", "114052.277500", "114054.277500", "114056.277500", "114058.277500", "114100.277500", "114102.277500", "114104.277500", "114106.277500", "114108.277500", "114110.277500", "114112.277500", "114114.277500", "114116.277500", "114118.277500", "114120.277500", "114122.277500", "114124.277500", "114126.277500", "114128.277500", "114130.277500", "114132.277500", "114134.277500", "114136.277500", "114138.277500", "114140.277500", "114142.277500", "114144.277500", "114146.277500", "114148.277500", "114150.277500", "114152.277500", "114154.277500", "114156.277500", "114158.277500", "114200.277500", "114202.277500", "114204.277500", "114206.277500", "114208.277500", "114210.277500", "114212.277500", "114214.277500", "114216.277500", "114218.277500", "114220.277500", "114222.277500", "114224.277500", "114226.277500", "114228.277500", "114230.277500", "114232.277500", "114234.277500", "114236.277500", "114238.277500", "114240.277500", "114242.277500", "114244.277500", "114246.277500", "114248.277500", "114250.277500", "114252.277500", "114254.277500", "114256.277500", "114258.277500", "114300.277500", "114302.277500", "114304.277500", "114306.277500", "114308.277500", "114310.277500", "114312.277500", "114314.277500", "114316.277500", "114318.277500", "114320.277500", "114322.277500", "114324.277500", "114326.277500", "114328.277500", "114330.277500", "114332.277500", "114334.277500", "114336.277500", "114338.277500", "114340.277500", "114342.277500", "114344.277500", "114346.277500", "114348.277500", "114350.277500", "114352.277500", "114354.277500", "114356.277500", "114358.277500", "114400.277500", "114402.277500", "114404.277500", "114406.277500", "114408.277500", "114410.277500", "114412.277500", "114414.277500", "114416.277500", "114418.277500", "114420.277500", "114422.277500", "114424.277500", "114426.277500", "114428.277500", "114430.277500", "114432.277500", "114434.277500", "114436.277500", "114438.277500", "114440.277500", "114442.277500", "114444.277500", "114446.277500", "114448.277500", "114450.277500", "114452.277500", "114454.277500", "114456.277500", "114458.277500", "114500.277500", "114502.277500", "114504.277500", "114506.277500", "114508.277500", "114510.277500", "114512.277500", "114514.277500", "114516.277500", "114518.277500", "114520.277500", "114522.277500", "114524.277500", "114526.277500", "114528.277500", "114530.277500", "114532.277500", "114534.277500", "114536.277500", "114538.277500", "114540.277500", "114542.277500", "114544.277500", "114546.277500", "114548.277500", "114550.277500", "114552.277500", "114554.277500", "114556.277500", "114558.277500", "114600.277500", "114602.277500", "114604.277500", "114606.277500", "114608.277500", "114610.277500", "114612.277500", "114614.277500", "114616.277500", "114618.277500", "114620.277500", "114622.277500", "114624.277500", "114626.277500", "114628.277500", "114630.277500", "114632.277500", "114634.277500", "114636.277500", "114638.277500", "114640.277500", "114642.277500", "114644.277500", "114646.277500", "114648.277500", "114650.277500", "114652.277500", "114654.277500", "114656.277500", "114658.277500", "114700.277500", "114702.277500", "114704.277500", "114706.277500", "114708.277500", "114710.277500", "114712.277500", "114714.277500", "114716.277500", "114718.277500", "114720.277500", "114722.277500", "114724.277500", "114726.277500", "114728.277500", "114730.277500", "114732.277500", "114734.277500", "114736.277500", "114738.277500", "114740.277500", "114742.277500", "114744.277500", "114746.277500", "114748.277500", "114750.277500", "114752.277500", "114754.277500", "114756.277500", "114758.277500", "114800.277500", "114802.277500", "114804.277500", "114806.277500", "114808.277500", "114810.277500", "114812.277500", "114814.277500", "114816.277500", "114818.277500", "114820.277500", "114822.277500", "114824.277500", "114826.277500", "114828.277500", "114830.277500", "114832.277500", "114834.277500", "114836.277500", "114838.277500", "114840.277500", "114842.277500", "114844.277500", "114846.277500", "114848.277500", "114850.277500", "114852.277500", "114854.277500", "114856.277500", "114858.277500", "114900.277500", "114902.277500", "114904.277500", "114906.277500", "114908.277500", "114910.277500", "114912.277500", "114914.277500", "114916.277500", "114918.277500", "114920.277500", "114922.277500", "114924.277500", "114926.277500", "114928.277500", "114930.277500", "114932.277500", "114934.277500", "114936.277500", "114938.277500", "114940.277500", "114942.277500", "114944.277500", "114946.277500", "114948.277500", "114950.277500", "114952.277500", "114954.277500", "114956.277500", "114958.277500", "115000.277500", "115002.277500", "115004.277500", "115006.277500", "115008.277500", "115010.277500", "115012.277500", "115014.277500", "115016.277500", "115018.277500", "115020.277500", "115022.277500", "115024.277500", "115026.277500", "115028.277500", "115030.277500", "115032.277500", "115034.277500", "115036.277500", "115038.277500", "115040.277500", "115042.277500", "115044.277500", "115046.277500", "115048.277500", "115050.277500", "115052.277500", "115054.277500", "115056.277500", "115058.277500", "115100.277500", "115102.277500", "115104.277500", "115106.277500", "115108.277500", "115110.277500", "115112.277500", "115114.277500", "115116.277500", "115118.277500", "115120.277500", "115122.277500", "115124.277500", "115126.277500", "115128.277500", "115130.277500", "115132.277500", "115134.277500", "115136.277500", "115138.277500", "115140.277500", "115142.277500", "115144.277500", "115146.277500", "115148.277500", "115150.277500", "115152.277500", "115154.277500", "115156.277500", "115158.277500", "115200.277500", "115202.277500", "115204.277500", "115206.277500", "115208.277500", "115210.277500", "115212.277500", "115214.277500", "115216.277500", "115218.277500", "115220.277500", "115222.277500", "115224.277500", "115226.277500", "115228.277500", "115230.277500", "115232.277500", "115234.277500", "115236.277500", "115238.277500", "115240.277500", "115242.277500", "115244.277500", "115246.277500", "115248.277500", "115250.277500", "115252.277500", "115254.277500", "115256.277500"],
      "ContentTime": ["113907.543000", "113907.546000", "113907.558000", "113907.564000", "113907.567000", "113907.570000", "113907.573000", "113907.575000", "113907.578000", "113907.581000", "113907.584000", "113907.587000", "113907.589000", "113907.592000", "113907.595000", "113907.603000", "113907.605000", "113907.608000", "113907.611000", "113907.614000", "113907.617000", "113947.538000", "113947.541000", "113947.544000", "113947.546000", "113947.549000", "113947.552000", "113947.555000", "113947.558000", "113947.560000", "113947.563000", "113947.566000", "113947.569000", "113947.580000", "113947.583000", "113947.585000", "113947.588000", "113947.591000", "113947.594000", "113947.596000", "113947.599000", "114027.538000", "114027.541000", "114027.554000", "114027.557000", "114027.559000", "114027.562000", "114027.565000", "114027.568000", "114027.570000", "114027.573000", "114027.576000", "114027.579000", "114027.582000", "114027.584000", "114027.587000", "114027.590000", "114027.593000", "114027.596000", "114027.598000", "114027.601000", "114107.538000", "114107.541000", "114107.544000", "114107.546000", "114107.549000", "114107.552000", "114107.555000", "114107.558000", "114107.560000", "114107.563000", "114107.566000", "114107.569000", "114107.571000", "114107.574000", "114107.577000", "114107.580000", "114107.582000", "114107.585000", "114107.588000", "114107.591000", "114147.538000", "114147.541000", "114147.544000", "114147.546000", "114147.549000", "114147.552000", "114147.555000", "114147.557000", "114147.560000", "114147.563000", "114147.566000", "114147.569000", "114147.571000", "114147.574000", "114147.577000", "114147.580000", "114147.583000", "114147.585000", "114147.588000", "114147.591000", "114227.539000", "114227.542000", "114227.545000", "114227.548000", "114227.550000", "114227.553000", "114227.556000", "114227.559000", "114227.561000", "114227.569000", "114227.572000", "114227.575000", "114227.578000", "114227.581000", "114227.583000", "114227.586000", "114227.589000", "114227.592000", "114227.595000", "114227.597000", "114307.538000", "114307.541000", "114307.544000", "114307.565000", "114307.568000", "114307.571000", "114307.574000", "114307.577000", "114307.579000", "114307.582000", "114307.585000", "114307.588000", "114307.590000", "114307.593000", "114307.596000", "114307.599000", "114307.602000", "114307.604000", "114307.607000", "114307.610000", "114347.538000", "114347.541000", "114347.544000", "114347.546000", "114347.549000", "114347.552000", "114347.555000", "114347.558000", "114347.560000", "114347.563000", "114347.566000", "114347.569000", "114347.571000", "114347.574000", "114347.577000", "114347.580000", "114347.583000", "114347.586000", "114347.588000", "114347.591000", "114427.538000", "114427.541000", "114427.544000", "114427.546000", "114427.549000", "114427.552000", "114427.555000", "114427.558000", "114427.560000", "114427.563000", "114427.566000", "114427.569000", "114427.572000", "114427.574000", "114427.577000", "114427.580000", "114427.583000", "114427.586000", "114427.588000", "114427.591000", "114507.538000", "114507.541000", "114507.544000", "114507.547000", "114507.550000", "114507.553000", "114507.556000", "114507.558000", "114507.561000", "114507.564000", "114507.567000", "114507.570000", "114507.572000", "114507.575000", "114507.578000", "114507.581000", "114507.584000", "114507.586000", "114507.589000", "114507.592000", "114547.538000", "114547.541000", "114547.544000", "114547.547000", "114547.549000", "114547.552000", "114547.555000", "114547.558000", "114547.561000", "114547.563000", "114547.566000", "114547.569000", "114547.572000", "114547.575000", "114547.577000", "114547.580000", "114547.583000", "114547.586000", "114547.589000", "114547.591000", "114627.538000", "114627.541000", "114627.544000", "114627.546000", "114627.549000", "114627.552000", "114627.555000", "114627.558000", "114627.560000", "114627.563000", "114627.566000", "114627.569000", "114627.572000", "114627.575000", "114627.577000", "114627.580000", "114627.583000", "114627.597000", "114627.600000", "114627.602000", "114707.539000", "114707.542000", "114707.544000", "114707.547000", "114707.550000", "114707.553000", "114707.555000", "114707.558000", "114707.561000", "114707.563000", "114707.566000", "114707.569000", "114707.572000", "114707.575000", "114707.578000", "114707.581000", "114707.583000", "114707.586000", "114707.589000", "114707.592000", "114747.538000", "114747.541000", "114747.544000", "114747.546000", "114747.549000", "114747.552000", "114747.555000", "114747.557000", "114747.560000", "114747.563000", "114747.566000", "114747.569000", "114747.572000", "114747.574000", "114747.577000", "114747.580000", "114747.583000", "114747.586000", "114747.588000", "114747.591000", "114827.538000", "114827.541000", "114827.543000", "114827.546000", "114827.549000", "114827.552000", "114827.555000", "114827.566000", "114827.569000", "114827.572000", "114827.575000", "114827.577000", "114827.580000", "114827.583000", "114827.586000", "114827.588000", "114827.591000", "114827.594000", "114827.597000", "114827.600000", "114907.538000", "114907.541000", "114907.543000", "114907.546000", "114907.549000", "114907.552000", "114907.555000", "114907.558000", "114907.560000", "114907.563000", "114907.566000", "114907.569000", "114907.572000", "114907.575000", "114907.577000", "114907.580000", "114907.583000", "114907.586000", "114907.588000", "114907.591000", "114947.538000", "114947.541000", "114947.544000", "114947.546000", "114947.549000", "114947.552000", "114947.555000", "114947.557000", "114947.560000", "114947.563000", "114947.566000", "114947.569000", "114947.572000", "114947.575000", "114947.577000", "114947.580000", "114947.583000", "114947.586000", "114947.588000", "114947.591000", "115027.538000", "115027.541000", "115027.544000", "115027.546000", "115027.549000", "115027.552000", "115027.555000", "115027.557000", "115027.570000", "115027.573000", "115027.576000", "115027.579000", "115027.582000", "115027.584000", "115027.587000", "115027.590000", "115027.593000", "115027.596000", "115027.598000", "115027.601000", "115107.538000", "115107.541000", "115107.543000", "115107.546000", "115107.549000", "115107.552000", "115107.555000", "115107.557000", "115107.560000", "115107.563000", "115107.566000", "115107.569000", "115107.572000", "115107.574000", "115107.577000", "115107.580000", "115107.583000", "115107.586000", "115107.588000", "115107.591000", "115147.539000", "115147.542000", "115147.545000", "115147.547000", "115147.550000", "115147.553000", "115147.556000", "115147.559000", "115147.561000", "115147.564000", "115147.567000", "115147.570000", "115147.573000", "115147.576000", "115147.578000", "115147.581000", "115147.584000", "115147.587000", "115147.589000", "115147.592000", "115227.538000", "115227.541000", "115227.544000", "115227.546000", "115227.549000", "115227.552000", "115227.555000", "115227.557000", "115227.560000", "115227.563000", "115227.566000", "115227.569000", "115227.572000", "115227.575000", "115227.577000", "115227.580000", "115227.583000", "115227.586000", "115227.588000", "115227.591000", "115258.043000", "115258.046000", "115258.049000", "115258.052000", "115258.055000", "115258.058000", "115258.061000", "115258.064000", "115258.066000", "115258.069000", "115258.072000", "115258.076000", "115258.079000", "115258.083000", "115258.087000", "115258.090000"],
      "DataSetTrailingPadding": [
        "\u0000\u0000\u0000\u0000\u0000\u0000\u0000\u0000\u0000\u0000\u0000\u0000\u0000\u0000\u0000\u0000\u0000\u0000\u0000\u0000\u0000\u0000\u0000\u0000\u0000\u0000\u0000\u0000\u0000\u0000\u0000\u0000\u0000\u0000\u0000\u0000\u0000\u0000\u0000\u0000\u0000\u0000\u0000\u0000\u0000\u0000\u0000\u0000\u0000\u0000\u0000\u0000\u0000\u0000\u0000\u0000\u0000\u0000\u0000\u0000\u0000\u0000\u0000\u0000\u0000\u0000\u0000\u0000\u0000\u0000\u0000\u0000\u0000\u0000\u0000\u0000\u0000\u0000\u0000\u0000\u0000\u0000\u0000\u0000\u0000\u0000\u0000\u0000\u0000\u0000\u0000\u0000\u0000\u0000\u0000\u0000\u0000\u0000\u0000\u0000\u0000\u0000\u0000\u0000\u0000\u0000\u0000\u0000\u0000\u0000\u0000\u0000\u0000\u0000\u0000\u0000\u0000\u0000\u0000\u0000\u0000\u0000\u0000\u0000\u0000\u0000\u0000\u0000\u0000\u0000\u0000\u0000\u0000\u0000\u0000\u0000\u0000\u0000\u0000\u0000\u0000\u0000\u0000\u0000\u0000\u0000\u0000\u0000\u0000\u0000\u0000\u0000\u0000\u0000\u0000\u0000\u0000\u0000\u0000\u0000\u0000\u0000\u0000\u0000\u0000\u0000\u0000\u0000\u0000\u0000\u0000\u0000\u0000\u0000\u0000\u0000\u0000\u0000\u0000\u0000\u0000\u0000\u0000\u0000\u0000\u0000\u0000\u0000\u0000\u0000\u0000\u0000\u0000\u0000\u0000\u0000\u0000\u0000\u0000\u0000\u0000\u0000\u0000\u0000\u0000\u0000\u0000\u0000\u0000\u0000\u0000\u0000\u0000\u0000\u0000\u0000\u0000\u0000\u0000\u0000\u0000\u0000\u0000\u0000\u0000\u0000\u0000\u0000\u0000\u0000\u0000\u0000\u0000\u0000\u0000\u0000\u0000\u0000\u0000\u0000\u0000\u0000\u0000\u0000\u0000\u0000\u0000\u0000\u0000\u0000\u0000\u0000\u0000\u0000\u0000\u0000\u0000\u0000\u0000\u0000\u0000\u0000\u0000\u0000\u0000\u0000\u0000\u0000\u0000\u0000\u0000\u0000\u0000\u0000\u0000\u0000\u0000\u0000\u0000\u0000\u0000\u0000\u0000\u0000\u0000\u0000\u0000\u0000\u0000\u0000\u0000\u0000\u0000\u0000\u0000\u0000\u0000\u0000\u0000\u0000\u0000\u0000\u0000\u0000\u0000\u0000\u0000\u0000\u0000\u0000",
        "\u0000\u0000\u0000\u0000\u0000\u0000\u0000\u0000\u0000\u0000\u0000\u0000\u0000\u0000\u0000\u0000\u0000\u0000\u0000\u0000\u0000\u0000\u0000\u0000\u0000\u0000\u0000\u0000\u0000\u0000\u0000\u0000\u0000\u0000\u0000\u0000\u0000\u0000\u0000\u0000\u0000\u0000\u0000\u0000\u0000\u0000\u0000\u0000\u0000\u0000\u0000\u0000\u0000\u0000\u0000\u0000\u0000\u0000\u0000\u0000\u0000\u0000\u0000\u0000\u0000\u0000\u0000\u0000\u0000\u0000\u0000\u0000\u0000\u0000\u0000\u0000\u0000\u0000\u0000\u0000\u0000\u0000\u0000\u0000\u0000\u0000\u0000\u0000\u0000\u0000\u0000\u0000\u0000\u0000\u0000\u0000\u0000\u0000\u0000\u0000\u0000\u0000\u0000\u0000\u0000\u0000\u0000\u0000\u0000\u0000\u0000\u0000\u0000\u0000\u0000\u0000\u0000\u0000\u0000\u0000\u0000\u0000\u0000\u0000\u0000\u0000\u0000\u0000\u0000\u0000\u0000\u0000\u0000\u0000\u0000\u0000\u0000\u0000\u0000\u0000\u0000\u0000\u0000\u0000\u0000\u0000\u0000\u0000\u0000\u0000\u0000\u0000\u0000\u0000\u0000\u0000\u0000\u0000\u0000\u0000\u0000\u0000\u0000\u0000\u0000\u0000\u0000\u0000\u0000\u0000\u0000\u0000\u0000\u0000\u0000\u0000\u0000\u0000\u0000\u0000\u0000\u0000\u0000\u0000\u0000\u0000\u0000\u0000\u0000\u0000\u0000\u0000\u0000\u0000\u0000\u0000\u0000\u0000\u0000\u0000\u0000\u0000\u0000\u0000\u0000\u0000\u0000\u0000\u0000\u0000\u0000\u0000\u0000\u0000\u0000\u0000\u0000\u0000\u0000\u0000\u0000\u0000\u0000\u0000\u0000\u0000\u0000\u0000\u0000\u0000\u0000\u0000\u0000\u0000\u0000\u0000\u0000\u0000\u0000\u0000\u0000\u0000\u0000\u0000\u0000\u0000\u0000\u0000\u0000\u0000\u0000\u0000\u0000\u0000\u0000\u0000\u0000\u0000\u0000\u0000\u0000\u0000\u0000\u0000\u0000\u0000\u0000\u0000\u0000\u0000\u0000\u0000\u0000\u0000\u0000\u0000\u0000\u0000\u0000\u0000\u0000\u0000\u0000\u0000\u0000\u0000\u0000\u0000\u0000\u0000\u0000\u0000\u0000\u0000\u0000\u0000\u0000\u0000\u0000\u0000\u0000\u0000\u0000\u0000\u0000\u0000\u0000\u0000\u0000\u0000",
        "\u0000\u0000\u0000\u0000\u0000\u0000\u0000\u0000\u0000\u0000\u0000\u0000\u0000\u0000\u0000\u0000\u0000\u0000\u0000\u0000\u0000\u0000\u0000\u0000\u0000\u0000\u0000\u0000\u0000\u0000\u0000\u0000\u0000\u0000\u0000\u0000\u0000\u0000\u0000\u0000\u0000\u0000\u0000\u0000\u0000\u0000\u0000\u0000\u0000\u0000\u0000\u0000\u0000\u0000\u0000\u0000\u0000\u0000\u0000\u0000\u0000\u0000\u0000\u0000\u0000\u0000\u0000\u0000\u0000\u0000\u0000\u0000\u0000\u0000\u0000\u0000\u0000\u0000\u0000\u0000\u0000\u0000\u0000\u0000\u0000\u0000\u0000\u0000\u0000\u0000\u0000\u0000\u0000\u0000\u0000\u0000\u0000\u0000\u0000\u0000\u0000\u0000\u0000\u0000\u0000\u0000\u0000\u0000\u0000\u0000\u0000\u0000\u0000\u0000\u0000\u0000\u0000\u0000\u0000\u0000\u0000\u0000\u0000\u0000\u0000\u0000\u0000\u0000\u0000\u0000\u0000\u0000\u0000\u0000\u0000\u0000\u0000\u0000\u0000\u0000\u0000\u0000\u0000\u0000\u0000\u0000\u0000\u0000\u0000\u0000\u0000\u0000\u0000\u0000\u0000\u0000\u0000\u0000\u0000\u0000\u0000\u0000\u0000\u0000\u0000\u0000\u0000\u0000\u0000\u0000\u0000\u0000\u0000\u0000\u0000\u0000\u0000\u0000\u0000\u0000\u0000\u0000\u0000\u0000\u0000\u0000\u0000\u0000\u0000\u0000\u0000\u0000\u0000\u0000\u0000\u0000\u0000\u0000\u0000\u0000\u0000\u0000\u0000\u0000\u0000\u0000\u0000\u0000\u0000\u0000\u0000\u0000\u0000\u0000\u0000\u0000\u0000\u0000\u0000\u0000\u0000\u0000\u0000\u0000\u0000\u0000\u0000\u0000\u0000\u0000\u0000\u0000\u0000\u0000\u0000\u0000\u0000\u0000\u0000\u0000\u0000\u0000\u0000\u0000\u0000\u0000\u0000\u0000\u0000\u0000\u0000\u0000\u0000\u0000\u0000\u0000\u0000\u0000\u0000\u0000\u0000\u0000\u0000\u0000\u0000\u0000\u0000\u0000\u0000\u0000\u0000\u0000\u0000\u0000\u0000\u0000\u0000\u0000\u0000\u0000\u0000\u0000\u0000\u0000\u0000\u0000\u0000\u0000\u0000\u0000\u0000\u0000\u0000\u0000\u0000\u0000\u0000\u0000\u0000\u0000\u0000\u0000\u0000\u0000\u0000\u0000\u0000\u0000\u0000\u0000",
        "\u0000\u0000\u0000\u0000\u0000\u0000\u0000\u0000\u0000\u0000\u0000\u0000\u0000\u0000\u0000\u0000\u0000\u0000\u0000\u0000\u0000\u0000\u0000\u0000\u0000\u0000\u0000\u0000\u0000\u0000\u0000\u0000\u0000\u0000\u0000\u0000\u0000\u0000\u0000\u0000\u0000\u0000\u0000\u0000\u0000\u0000\u0000\u0000\u0000\u0000\u0000\u0000\u0000\u0000\u0000\u0000\u0000\u0000\u0000\u0000\u0000\u0000\u0000\u0000\u0000\u0000\u0000\u0000\u0000\u0000\u0000\u0000\u0000\u0000\u0000\u0000\u0000\u0000\u0000\u0000\u0000\u0000\u0000\u0000\u0000\u0000\u0000\u0000\u0000\u0000\u0000\u0000\u0000\u0000\u0000\u0000\u0000\u0000\u0000\u0000\u0000\u0000\u0000\u0000\u0000\u0000\u0000\u0000\u0000\u0000\u0000\u0000\u0000\u0000\u0000\u0000\u0000\u0000\u0000\u0000\u0000\u0000\u0000\u0000\u0000\u0000\u0000\u0000\u0000\u0000\u0000\u0000\u0000\u0000\u0000\u0000\u0000\u0000\u0000\u0000\u0000\u0000\u0000\u0000\u0000\u0000\u0000\u0000\u0000\u0000\u0000\u0000\u0000\u0000\u0000\u0000\u0000\u0000\u0000\u0000\u0000\u0000\u0000\u0000\u0000\u0000\u0000\u0000\u0000\u0000\u0000\u0000\u0000\u0000\u0000\u0000\u0000\u0000\u0000\u0000\u0000\u0000\u0000\u0000\u0000\u0000\u0000\u0000\u0000\u0000\u0000\u0000\u0000\u0000\u0000\u0000\u0000\u0000\u0000\u0000\u0000\u0000\u0000\u0000\u0000\u0000\u0000\u0000\u0000\u0000\u0000\u0000\u0000\u0000\u0000\u0000\u0000\u0000\u0000\u0000\u0000\u0000\u0000\u0000\u0000\u0000\u0000\u0000\u0000\u0000\u0000\u0000\u0000\u0000\u0000\u0000\u0000\u0000\u0000\u0000\u0000\u0000\u0000\u0000\u0000\u0000\u0000\u0000\u0000\u0000\u0000\u0000\u0000\u0000\u0000\u0000\u0000\u0000\u0000\u0000\u0000\u0000\u0000\u0000\u0000\u0000\u0000\u0000\u0000\u0000\u0000\u0000\u0000\u0000\u0000\u0000\u0000\u0000\u0000\u0000\u0000\u0000\u0000\u0000\u0000\u0000\u0000\u0000\u0000\u0000\u0000\u0000\u0000\u0000\u0000\u0000\u0000\u0000\u0000\u0000\u0000\u0000\u0000\u0000\u0000\u0000\u0000\u0000",
