{
  "AcquisitionMatrixPE": 70,
  "AcquisitionNumber": 1,
  "AcquisitionTime": "12:22:38.375000",
  "BandwidthPerPixelPhaseEncode": 51.948,
  "BaseResolution": 70,
  "BodyPartExamined": "HEAD",
  "CoilCombinationMethod": "Sum of Squares",
  "ConsistencyInfo": "N4_VE11C_LATEST_20160120",
  "ConversionSoftware": "dcm2niix",
  "ConversionSoftwareVersion": "v1.0.20220720",
  "DerivedVendorReportedEchoSpacing": 0.000550001,
  "DeviceSerialNumber": "66061",
  "DwellTime": 3.3e-06,
  "EchoTime": 0.022,
  "EchoTrainLength": 35,
  "EffectiveEchoSpacing": 0.000275,
  "FlipAngle": 90,
  "HeudiconvVersion": "1.1.1",
  "ImageOrientationPatientDICOM": [0.998762, 0.00925354, 0.0488763, -0.00122027, 0.986808, -0.161892],
  "ImageOrientationText": "Tra>Cor(-9.3)>Sag(2.9)",
  "ImageType": [
    "ORIGINAL",
    "PRIMARY",
    "M",
    "ND",
    "NORM",
    "MOSAIC"
],
  "ImagingFrequency": 123.254,
  "InPlanePhaseEncodingDirectionDICOM": "COL",
  "InstitutionAddress": "Street StreetNo,City/1c4204/,District,KR,ZIP",
  "InstitutionName": "SKKU",
  "InstitutionalDepartmentName": "Department",
  "MRAcquisitionType": "2D",
  "MagneticFieldStrength": 3,
  "Manufacturer": "Siemens",
  "ManufacturersModelName": "Prisma",
  "MatrixCoilMode": "GRAPPA",
  "Modality": "MR",
  "NonlinearGradientCorrection": false,
  "ParallelReductionFactorInPlane": 2,
  "PartialFourier": 1,
  "PatientPosition": "HFS",
  "PercentPhaseFOV": 100,
  "PercentSampling": 100,
  "PhaseEncodingDirection": "j-",
  "PhaseEncodingSteps": 70,
  "PhaseResolution": 1,
  "PixelBandwidth": 2165,
  "ProcedureStepDescription": "Head^PI:Others",
  "ProtocolName": "BOLD_ep2d_3x3x3_response2",
  "PulseSequenceDetails": "%SiemensSeq%\\ep2d_pace",
  "ReceiveCoilActiveElements": "HC1-7",
  "ReceiveCoilName": "HeadNeck_64",
  "ReconMatrixPE": 70,
  "RefLinesPE": 24,
  "RepetitionTime": 2,
  "SAR": 0.138449,
  "ScanOptions": "FS",
  "ScanningSequence": "EP",
  "SequenceName": "*epfid2d1_70",
  "SequenceVariant": "SK",
  "SeriesDescription": "BOLD_ep2d_3x3x3_response2",
  "SeriesNumber": 7,
  "ShimSetting": [5063, 3730, 4439, 389, -98, -52, 117, 1],
  "SliceThickness": 3,
  "SliceTiming": [0.99, 0, 1.0375, 0.0475, 1.085, 0.095, 1.1325, 0.1425, 1.1775, 0.1875, 1.225, 0.235, 1.2725, 0.2825, 1.32, 0.33, 1.3675, 0.3775, 1.415, 0.425, 1.4625, 0.4725, 1.5075, 0.5175, 1.555, 0.565, 1.6025, 0.6125, 1.65, 0.66, 1.6975, 0.7075, 1.745, 0.755, 1.7925, 0.8025, 1.8375, 0.8475, 1.885, 0.895, 1.9325, 0.9425],
  "SoftwareVersions": "syngo MR E11",
  "SpacingBetweenSlices": 3,
  "StationName": "AWP66061",
  "TaskName": "response",
  "TotalReadoutTime": 0.018975,
  "TxRefAmp": 248.358,
  "dcmmeta_affine": [
    [-2.996285915374756, -0.0036608048249036074, 0.14918877184391022, 102.98246765136719],
    [-0.027760615572333336, 2.960422992706299, -0.48489710688591003, -83.11187744140625],
    [0.14662893116474152, 0.4856773316860199, 2.956791639328003, -74.35111999511719],
    [0.0, 0.0, 0.0, 1.0]
],
  "dcmmeta_reorient_transform": [
    [0.0, -1.0, 0.0, 69.0],
    [1.0, 0.0, 0.0, 0.0],
    [0.0, 0.0, -1.0, 41.0],
    [0.0, 0.0, 0.0, 1.0]
],
  "dcmmeta_shape": [70, 70, 42, 341],
  "dcmmeta_slice_dim": 2,
  "dcmmeta_version": 0.6,
  "global": {
    "const": {
      "AcquisitionMatrix": [70, 0, 0, 70],
      "AngioFlag": "N",
      "BitsAllocated": 16,
      "BitsStored": 12,
      "BodyPartExamined": "HEAD",
      "Columns": 490,
      "EchoNumbers": 1,
      "EchoTime": 22.0,
      "EchoTrainLength": 35,
      "FlipAngle": 90.0,
      "HighBit": 11,
      "ImageOrientationPatient": [0.99876197291562, 0.00925353845197, 0.04887630800117, -0.0012202683072, 0.98680765464333, -0.1618924447977],
      "ImagePositionPatient": [-737.29788444697, -728.79507521072, 151.58923755964],
      "ImageType": [
        "ORIGINAL",
        "PRIMARY",
        "M",
        "ND",
        "NORM",
        "MOSAIC"
],
      "ImagedNucleus": "1H",
      "ImagingFrequency": 123.254405,
      "InPlanePhaseEncodingDirection": "COL",
      "MRAcquisitionType": "2D",
      "MagneticFieldStrength": 3.0,
      "Manufacturer": "SIEMENS",
      "ManufacturerModelName": "Prisma",
      "Modality": "MR",
      "NumberOfAverages": 1.0,
      "NumberOfPhaseEncodingSteps": 70,
      "PercentPhaseFieldOfView": 100.0,
      "PercentSampling": 100.0,
      "PerformedProcedureStepStartTime": "113237.762000",
      "PhotometricInterpretation": "MONOCHROME2",
      "PixelBandwidth": 2165.0,
      "PixelRepresentation": 0,
      "PixelSpacing": [3.0, 3.0],
      "ProtocolName": "BOLD_ep2d_3x3x3_response2",
      "RepetitionTime": 2000.0,
      "Rows": 490,
      "SAR": 0.13844885326619,
      "SamplesPerPixel": 1,
      "ScanOptions": "FS",
      "ScanningSequence": "EP",
      "SequenceName": "*epfid2d1_70",
      "SequenceVariant": "SK",
      "SeriesDescription": "BOLD_ep2d_3x3x3_response2",
      "SeriesNumber": 7,
      "SeriesTime": "122327.539000",
      "SliceLocation": 68.27458038009,
      "SliceThickness": 3.0,
      "SmallestImagePixelValue": 0,
      "SoftwareVersions": "syngo MR E11",
      "SpacingBetweenSlices": 2.9999999150736,
      "SpecificCharacterSet": "ISO_IR 100",
      "StudyID": "1",
      "StudyTime": "113237.707000",
      "TransmitCoilName": "Body",
      "VariableFlipAngleFlag": "N",
      "WindowCenterWidthExplanation": "Algo1",
      "dBdt": 0.0},
    "slices": {}
  },
  "time": {
    "samples": {
      "AcquisitionNumber": [1, 2, 3, 4, 5, 6, 7, 8, 9, 10, 11, 12, 13, 14, 15, 16, 17, 18, 19, 20, 21, 22, 23, 24, 25, 26, 27, 28, 29, 30, 31, 32, 33, 34, 35, 36, 37, 38, 39, 40, 41, 42, 43, 44, 45, 46, 47, 48, 49, 50, 51, 52, 53, 54, 55, 56, 57, 58, 59, 60, 61, 62, 63, 64, 65, 66, 67, 68, 69, 70, 71, 72, 73, 74, 75, 76, 77, 78, 79, 80, 81, 82, 83, 84, 85, 86, 87, 88, 89, 90, 91, 92, 93, 94, 95, 96, 97, 98, 99, 100, 101, 102, 103, 104, 105, 106, 107, 108, 109, 110, 111, 112, 113, 114, 115, 116, 117, 118, 119, 120, 121, 122, 123, 124, 125, 126, 127, 128, 129, 130, 131, 132, 133, 134, 135, 136, 137, 138, 139, 140, 141, 142, 143, 144, 145, 146, 147, 148, 149, 150, 151, 152, 153, 154, 155, 156, 157, 158, 159, 160, 161, 162, 163, 164, 165, 166, 167, 168, 169, 170, 171, 172, 173, 174, 175, 176, 177, 178, 179, 180, 181, 182, 183, 184, 185, 186, 187, 188, 189, 190, 191, 192, 193, 194, 195, 196, 197, 198, 199, 200, 201, 202, 203, 204, 205, 206, 207, 208, 209, 210, 211, 212, 213, 214, 215, 216, 217, 218, 219, 220, 221, 222, 223, 224, 225, 226, 227, 228, 229, 230, 231, 232, 233, 234, 235, 236, 237, 238, 239, 240, 241, 242, 243, 244, 245, 246, 247, 248, 249, 250, 251, 252, 253, 254, 255, 256, 257, 258, 259, 260, 261, 262, 263, 264, 265, 266, 267, 268, 269, 270, 271, 272, 273, 274, 275, 276, 277, 278, 279, 280, 281, 282, 283, 284, 285, 286, 287, 288, 289, 290, 291, 292, 293, 294, 295, 296, 297, 298, 299, 300, 301, 302, 303, 304, 305, 306, 307, 308, 309, 310, 311, 312, 313, 314, 315, 316, 317, 318, 319, 320, 321, 322, 323, 324, 325, 326, 327, 328, 329, 330, 331, 332, 333, 334, 335, 336, 337, 338, 339, 340, 341],
      "AcquisitionTime": ["122238.375000", "122240.375000", "122242.375000", "122244.375000", "122246.375000", "122248.375000", "122250.375000", "122252.375000", "122254.375000", "122256.375000", "122258.375000", "122300.375000", "122302.375000", "122304.375000", "122306.375000", "122308.375000", "122310.375000", "122312.375000", "122314.375000", "122316.375000", "122318.375000", "122320.375000", "122322.375000", "122324.375000", "122326.375000", "122328.375000", "122330.375000", "122332.375000", "122334.375000", "122336.375000", "122338.375000", "122340.375000", "122342.375000", "122344.375000", "122346.375000", "122348.375000", "122350.375000", "122352.375000", "122354.375000", "122356.375000", "122358.375000", "122400.375000", "122402.375000", "122404.375000", "122406.375000", "122408.375000", "122410.375000", "122412.375000", "122414.375000", "122416.375000", "122418.375000", "122420.375000", "122422.375000", "122424.375000", "122426.375000", "122428.375000", "122430.375000", "122432.375000", "122434.375000", "122436.375000", "122438.375000", "122440.375000", "122442.375000", "122444.375000", "122446.375000", "122448.375000", "122450.375000", "122452.375000", "122454.375000", "122456.375000", "122458.375000", "122500.375000", "122502.375000", "122504.375000", "122506.375000", "122508.375000", "122510.375000", "122512.375000", "122514.375000", "122516.375000", "122518.375000", "122520.375000", "122522.375000", "122524.375000", "122526.375000", "122528.375000", "122530.375000", "122532.375000", "122534.375000", "122536.375000", "122538.375000", "122540.375000", "122542.375000", "122544.375000", "122546.375000", "122548.375000", "122550.375000", "122552.375000", "122554.375000", "122556.375000", "122558.375000", "122600.375000", "122602.375000", "122604.375000", "122606.375000", "122608.375000", "122610.375000", "122612.375000", "122614.375000", "122616.375000", "122618.375000", "122620.375000", "122622.375000", "122624.375000", "122626.375000", "122628.375000", "122630.375000", "122632.375000", "122634.375000", "122636.375000", "122638.375000", "122640.375000", "122642.375000", "122644.375000", "122646.375000", "122648.375000", "122650.375000", "122652.375000", "122654.375000", "122656.375000", "122658.375000", "122700.375000", "122702.375000", "122704.375000", "122706.375000", "122708.375000", "122710.375000", "122712.375000", "122714.375000", "122716.375000", "122718.375000", "122720.375000", "122722.375000", "122724.375000", "122726.375000", "122728.375000", "122730.375000", "122732.375000", "122734.375000", "122736.375000", "122738.375000", "122740.375000", "122742.375000", "122744.375000", "122746.375000", "122748.375000", "122750.375000", "122752.375000", "122754.375000", "122756.375000", "122758.375000", "122800.375000", "122802.375000", "122804.375000", "122806.375000", "122808.375000", "122810.375000", "122812.375000", "122814.375000", "122816.375000", "122818.375000", "122820.375000", "122822.375000", "122824.375000", "122826.375000", "122828.375000", "122830.375000", "122832.375000", "122834.375000", "122836.375000", "122838.375000", "122840.375000", "122842.375000", "122844.375000", "122846.375000", "122848.375000", "122850.375000", "122852.375000", "122854.375000", "122856.375000", "122858.375000", "122900.375000", "122902.375000", "122904.375000", "122906.375000", "122908.375000", "122910.375000", "122912.375000", "122914.375000", "122916.375000", "122918.375000", "122920.375000", "122922.375000", "122924.375000", "122926.375000", "122928.375000", "122930.375000", "122932.375000", "122934.375000", "122936.375000", "122938.375000", "122940.375000", "122942.375000", "122944.375000", "122946.375000", "122948.375000", "122950.375000", "122952.375000", "122954.375000", "122956.375000", "122958.375000", "123000.375000", "123002.375000", "123004.375000", "123006.375000", "123008.375000", "123010.375000", "123012.375000", "123014.375000", "123016.375000", "123018.375000", "123020.375000", "123022.375000", "123024.375000", "123026.375000", "123028.375000", "123030.375000", "123032.375000", "123034.375000", "123036.375000", "123038.375000", "123040.375000", "123042.375000", "123044.375000", "123046.375000", "123048.375000", "123050.375000", "123052.375000", "123054.375000", "123056.375000", "123058.375000", "123100.375000", "123102.375000", "123104.375000", "123106.375000", "123108.375000", "123110.375000", "123112.375000", "123114.375000", "123116.375000", "123118.375000", "123120.375000", "123122.375000", "123124.375000", "123126.375000", "123128.375000", "123130.375000", "123132.375000", "123134.375000", "123136.375000", "123138.375000", "123140.375000", "123142.375000", "123144.375000", "123146.375000", "123148.375000", "123150.375000", "123152.375000", "123154.375000", "123156.375000", "123158.375000", "123200.375000", "123202.375000", "123204.375000", "123206.375000", "123208.375000", "123210.375000", "123212.375000", "123214.375000", "123216.375000", "123218.375000", "123220.375000", "123222.375000", "123224.375000", "123226.375000", "123228.375000", "123230.375000", "123232.375000", "123234.375000", "123236.375000", "123238.375000", "123240.375000", "123242.375000", "123244.375000", "123246.375000", "123248.375000", "123250.375000", "123252.375000", "123254.375000", "123256.375000", "123258.375000", "123300.375000", "123302.375000", "123304.375000", "123306.375000", "123308.375000", "123310.375000", "123312.375000", "123314.375000", "123316.375000", "123318.375000", "123320.375000", "123322.375000", "123324.375000", "123326.375000", "123328.375000", "123330.375000", "123332.375000", "123334.375000", "123336.375000", "123338.375000", "123340.375000", "123342.375000", "123344.375000", "123346.375000", "123348.375000", "123350.375000", "123352.375000", "123354.375000", "123356.375000", "123358.375000"],
      "ContentTime": ["122327.556000", "122327.571000", "122327.574000", "122327.577000", "122327.580000", "122327.583000", "122327.586000", "122327.588000", "122327.591000", "122327.594000", "122327.597000", "122327.600000", "122327.610000", "122327.613000", "122327.616000", "122327.619000", "122327.625000", "122327.633000", "122327.636000", "122327.639000", "122327.642000", "122327.644000", "122327.647000", "122327.650000", "122407.539000", "122407.542000", "122407.545000", "122407.547000", "122407.550000", "122407.553000", "122407.556000", "122407.558000", "122407.563000", "122407.566000", "122407.568000", "122407.571000", "122407.574000", "122407.577000", "122407.580000", "122407.583000", "122407.586000", "122407.589000", "122407.592000", "122407.595000", "122447.538000", "122447.541000", "122447.543000", "122447.546000", "122447.549000", "122447.552000", "122447.555000", "122447.558000", "122447.562000", "122447.565000", "122447.567000", "122447.570000", "122447.573000", "122447.576000", "122447.580000", "122447.582000", "122447.585000", "122447.588000", "122447.597000", "122447.600000", "122527.538000", "122527.541000", "122527.544000", "122527.546000", "122527.549000", "122527.552000", "122527.555000", "122527.559000", "122527.562000", "122527.564000", "122527.567000", "122527.575000", "122527.578000", "122527.581000", "122527.584000", "122527.587000", "122527.590000", "122527.592000", "122527.595000", "122527.598000", "122607.538000", "122607.541000", "122607.543000", "122607.546000", "122607.549000", "122607.552000", "122607.555000", "122607.558000", "122607.561000", "122607.564000", "122607.567000", "122607.571000", "122607.575000", "122607.577000", "122607.580000", "122607.583000", "122607.586000", "122607.589000", "122607.592000", "122607.594000", "122647.538000", "122647.541000", "122647.543000", "122647.546000", "122647.549000", "122647.552000", "122647.556000", "122647.559000", "122647.562000", "122647.565000", "122647.567000", "122647.570000", "122647.573000", "122647.576000", "122647.592000", "122647.595000", "122647.598000", "122647.609000", "122647.612000", "122647.615000", "122727.538000", "122727.541000", "122727.543000", "122727.547000", "122727.549000", "122727.552000", "122727.556000", "122727.559000", "122727.562000", "122727.564000", "122727.568000", "122727.571000", "122727.574000", "122727.577000", "122727.580000", "122727.583000", "122727.585000", "122727.588000", "122727.591000", "122727.594000", "122807.538000", "122807.541000", "122807.543000", "122807.546000", "122807.549000", "122807.553000", "122807.556000", "122807.559000", "122807.562000", "122807.565000", "122807.567000", "122807.571000", "122807.573000", "122807.577000", "122807.579000", "122807.582000", "122807.585000", "122807.588000", "122807.591000", "122807.593000", "122847.539000", "122847.542000", "122847.544000", "122847.547000", "122847.551000", "122847.554000", "122847.557000", "122847.560000", "122847.563000", "122847.575000", "122847.578000", "122847.581000", "122847.583000", "122847.586000", "122847.589000", "122847.592000", "122847.595000", "122847.598000", "122847.600000", "122847.607000", "122927.538000", "122927.541000", "122927.544000", "122927.547000", "122927.550000", "122927.553000", "122927.556000", "122927.559000", "122927.562000", "122927.565000", "122927.569000", "122927.572000", "122927.575000", "122927.578000", "122927.580000", "122927.583000", "122927.586000", "122927.589000", "122927.591000", "122927.594000", "123007.538000", "123007.541000", "123007.544000", "123007.547000", "123007.550000", "123007.553000", "123007.556000", "123007.559000", "123007.562000", "123007.564000", "123007.568000", "123007.571000", "123007.573000", "123007.576000", "123007.579000", "123007.582000", "123007.585000", "123007.588000", "123007.591000", "123007.600000", "123027.538000", "123027.541000", "123027.544000", "123027.547000", "123027.550000", "123027.553000", "123027.556000", "123027.559000", "123027.562000", "123027.565000", "123107.539000", "123107.542000", "123107.545000", "123107.548000", "123107.551000", "123107.554000", "123107.557000", "123107.560000", "123107.563000", "123107.566000", "123107.569000", "123107.572000", "123107.575000", "123107.577000", "123107.580000", "123107.583000", "123107.586000", "123107.588000", "123107.591000", "123107.594000", "123147.538000", "123147.553000", "123147.556000", "123147.559000", "123147.562000", "123147.565000", "123147.568000", "123147.571000", "123147.574000", "123147.576000", "123147.579000", "123147.583000", "123147.585000", "123147.588000", "123147.591000", "123147.594000", "123147.597000", "123147.600000", "123147.603000", "123147.605000", "123227.538000", "123227.541000", "123227.545000", "123227.548000", "123227.550000", "123227.553000", "123227.556000", "123227.559000", "123227.562000", "123227.565000", "123227.568000", "123227.571000", "123227.574000", "123227.577000", "123227.579000", "123227.582000", "123227.585000", "123227.588000", "123227.590000", "123227.593000", "123307.538000", "123307.542000", "123307.545000", "123307.548000", "123307.551000", "123307.554000", "123307.557000", "123307.559000", "123307.562000", "123307.565000", "123307.568000", "123307.571000", "123307.574000", "123307.577000", "123307.579000", "123307.582000", "123307.585000", "123307.588000", "123307.591000", "123307.594000", "123347.538000", "123347.542000", "123347.545000", "123347.548000", "123347.551000", "123347.554000", "123347.556000", "123347.559000", "123347.562000", "123347.565000", "123347.568000", "123347.571000", "123347.574000", "123347.577000", "123347.579000", "123347.582000", "123347.585000", "123347.588000", "123347.591000", "123347.593000", "123359.585000", "123359.588000", "123359.591000", "123359.594000", "123359.597000", "123359.600000", "123359.603000"],
      "DataSetTrailingPadding": [
        "\u0000\u0000\u0000\u0000\u0000\u0000\u0000\u0000\u0000\u0000\u0000\u0000\u0000\u0000\u0000\u0000\u0000\u0000\u0000\u0000\u0000\u0000\u0000\u0000\u0000\u0000\u0000\u0000\u0000\u0000\u0000\u0000\u0000\u0000\u0000\u0000\u0000\u0000\u0000\u0000\u0000\u0000\u0000\u0000\u0000\u0000\u0000\u0000\u0000\u0000",
        "\u0000\u0000\u0000\u0000\u0000\u0000\u0000\u0000\u0000\u0000\u0000\u0000\u0000\u0000\u0000\u0000\u0000\u0000\u0000\u0000\u0000\u0000\u0000\u0000\u0000\u0000\u0000\u0000\u0000\u0000\u0000\u0000\u0000\u0000\u0000\u0000\u0000\u0000\u0000\u0000\u0000\u0000\u0000\u0000\u0000\u0000\u0000\u0000\u0000\u0000\u0000\u0000",
        "\u0000\u0000\u0000\u0000\u0000\u0000\u0000\u0000\u0000\u0000\u0000\u0000\u0000\u0000\u0000\u0000\u0000\u0000\u0000\u0000\u0000\u0000\u0000\u0000\u0000\u0000\u0000\u0000\u0000\u0000\u0000\u0000\u0000\u0000\u0000\u0000\u0000\u0000\u0000\u0000\u0000\u0000\u0000\u0000\u0000\u0000\u0000\u0000\u0000\u0000\u0000\u0000",
        "\u0000\u0000\u0000\u0000\u0000\u0000\u0000\u0000\u0000\u0000\u0000\u0000\u0000\u0000\u0000\u0000\u0000\u0000\u0000\u0000\u0000\u0000\u0000\u0000\u0000\u0000\u0000\u0000\u0000\u0000\u0000\u0000\u0000\u0000\u0000\u0000\u0000\u0000\u0000\u0000\u0000\u0000\u0000\u0000\u0000\u0000\u0000\u0000\u0000\u0000\u0000\u0000",
        "\u0000\u0000\u0000\u0000\u0000\u0000\u0000\u0000\u0000\u0000\u0000\u0000\u0000\u0000\u0000\u0000\u0000\u0000\u0000\u0000\u0000\u0000\u0000\u0000\u0000\u0000\u0000\u0000\u0000\u0000\u0000\u0000\u0000\u0000\u0000\u0000\u0000\u0000\u0000\u0000\u0000\u0000\u0000\u0000\u0000\u0000\u0000\u0000\u0000\u0000",
        "\u0000\u0000\u0000\u0000\u0000\u0000\u0000\u0000\u0000\u0000\u0000\u0000\u0000\u0000\u0000\u0000\u0000\u0000\u0000\u0000\u0000\u0000\u0000\u0000\u0000\u0000\u0000\u0000\u0000\u0000\u0000\u0000\u0000\u0000\u0000\u0000\u0000\u0000\u0000\u0000\u0000\u0000\u0000\u0000\u0000\u0000\u0000\u0000\u0000\u0000",
        "\u0000\u0000\u0000\u0000\u0000\u0000\u0000\u0000\u0000\u0000\u0000\u0000\u0000\u0000\u0000\u0000\u0000\u0000\u0000\u0000\u0000\u0000\u0000\u0000\u0000\u0000\u0000\u0000\u0000\u0000\u0000\u0000\u0000\u0000\u0000\u0000\u0000\u0000\u0000\u0000\u0000\u0000\u0000\u0000\u0000\u0000\u0000\u0000\u0000\u0000",
        "\u0000\u0000\u0000\u0000\u0000\u0000\u0000\u0000\u0000\u0000\u0000\u0000\u0000\u0000\u0000\u0000\u0000\u0000\u0000\u0000\u0000\u0000\u0000\u0000\u0000\u0000\u0000\u0000\u0000\u0000\u0000\u0000\u0000\u0000\u0000\u0000\u0000\u0000\u0000\u0000\u0000\u0000\u0000\u0000\u0000\u0000\u0000\u0000\u0000\u0000",
        "\u0000\u0000\u0000\u0000\u0000\u0000\u0000\u0000\u0000\u0000\u0000\u0000\u0000\u0000\u0000\u0000\u0000\u0000\u0000\u0000\u0000\u0000\u0000\u0000\u0000\u0000\u0000\u0000\u0000\u0000\u0000\u0000\u0000\u0000\u0000\u0000\u0000\u0000\u0000\u0000\u0000\u0000\u0000\u0000\u0000\u0000\u0000\u0000\u0000\u0000",
        "\u0000\u0000\u0000\u0000\u0000\u0000\u0000\u0000\u0000\u0000\u0000\u0000\u0000\u0000\u0000\u0000\u0000\u0000\u0000\u0000\u0000\u0000\u0000\u0000\u0000\u0000\u0000\u0000\u0000\u0000\u0000\u0000\u0000\u0000\u0000\u0000\u0000\u0000\u0000\u0000\u0000\u0000\u0000\u0000\u0000\u0000\u0000\u0000\u0000\u0000",
        "\u0000\u0000\u0000\u0000\u0000\u0000\u0000\u0000\u0000\u0000\u0000\u0000\u0000\u0000\u0000\u0000\u0000\u0000\u0000\u0000\u0000\u0000\u0000\u0000\u0000\u0000\u0000\u0000\u0000\u0000\u0000\u0000\u0000\u0000\u0000\u0000\u0000\u0000\u0000\u0000\u0000\u0000\u0000\u0000\u0000\u0000\u0000\u0000\u0000\u0000",
        "\u0000\u0000\u0000\u0000\u0000\u0000\u0000\u0000\u0000\u0000\u0000\u0000\u0000\u0000\u0000\u0000\u0000\u0000\u0000\u0000\u0000\u0000\u0000\u0000\u0000\u0000\u0000\u0000\u0000\u0000\u0000\u0000\u0000\u0000\u0000\u0000\u0000\u0000\u0000\u0000\u0000\u0000\u0000\u0000\u0000\u0000\u0000\u0000\u0000\u0000",
        "\u0000\u0000\u0000\u0000\u0000\u0000\u0000\u0000\u0000\u0000\u0000\u0000\u0000\u0000\u0000\u0000\u0000\u0000\u0000\u0000\u0000\u0000\u0000\u0000\u0000\u0000\u0000\u0000\u0000\u0000\u0000\u0000\u0000\u0000\u0000\u0000\u0000\u0000\u0000\u0000\u0000\u0000\u0000\u0000\u0000\u0000\u0000\u0000\u0000\u0000",
        "\u0000\u0000\u0000\u0000\u0000\u0000\u0000\u0000\u0000\u0000\u0000\u0000\u0000\u0000\u0000\u0000\u0000\u0000\u0000\u0000\u0000\u0000\u0000\u0000\u0000\u0000\u0000\u0000\u0000\u0000\u0000\u0000\u0000\u0000\u0000\u0000\u0000\u0000\u0000\u0000\u0000\u0000\u0000\u0000\u0000\u0000\u0000\u0000\u0000\u0000",
        "\u0000\u0000\u0000\u0000\u0000\u0000\u0000\u0000\u0000\u0000\u0000\u0000\u0000\u0000\u0000\u0000\u0000\u0000\u0000\u0000\u0000\u0000\u0000\u0000\u0000\u0000\u0000\u0000\u0000\u0000\u0000\u0000\u0000\u0000\u0000\u0000\u0000\u0000\u0000\u0000\u0000\u0000\u0000\u0000\u0000\u0000\u0000\u0000\u0000\u0000",
        "\u0000\u0000\u0000\u0000\u0000\u0000\u0000\u0000\u0000\u0000\u0000\u0000\u0000\u0000\u0000\u0000\u0000\u0000\u0000\u0000\u0000\u0000\u0000\u0000\u0000\u0000\u0000\u0000\u0000\u0000\u0000\u0000\u0000\u0000\u0000\u0000\u0000\u0000\u0000\u0000\u0000\u0000\u0000\u0000\u0000\u0000\u0000\u0000\u0000\u0000",
        "\u0000\u0000\u0000\u0000\u0000\u0000\u0000\u0000\u0000\u0000\u0000\u0000\u0000\u0000\u0000\u0000\u0000\u0000\u0000\u0000\u0000\u0000\u0000\u0000\u0000\u0000\u0000\u0000\u0000\u0000\u0000\u0000\u0000\u0000\u0000\u0000\u0000\u0000\u0000\u0000\u0000\u0000\u0000\u0000\u0000\u0000\u0000\u0000\u0000\u0000",
        "\u0000\u0000\u0000\u0000\u0000\u0000\u0000\u0000\u0000\u0000\u0000\u0000\u0000\u0000\u0000\u0000\u0000\u0000\u0000\u0000\u0000\u0000\u0000\u0000\u0000\u0000\u0000\u0000\u0000\u0000\u0000\u0000\u0000\u0000\u0000\u0000\u0000\u0000\u0000\u0000\u0000\u0000\u0000\u0000\u0000\u0000\u0000\u0000\u0000\u0000",
        "\u0000\u0000\u0000\u0000\u0000\u0000\u0000\u0000\u0000\u0000\u0000\u0000\u0000\u0000\u0000\u0000\u0000\u0000\u0000\u0000\u0000\u0000\u0000\u0000\u0000\u0000\u0000\u0000\u0000\u0000\u0000\u0000\u0000\u0000\u0000\u0000\u0000\u0000\u0000\u0000\u0000\u0000\u0000\u0000\u0000\u0000\u0000\u0000\u0000\u0000",
        "\u0000\u0000\u0000\u0000\u0000\u0000\u0000\u0000\u0000\u0000\u0000\u0000\u0000\u0000\u0000\u0000\u0000\u0000\u0000\u0000\u0000\u0000\u0000\u0000\u0000\u0000\u0000\u0000\u0000\u0000\u0000\u0000\u0000\u0000\u0000\u0000\u0000\u0000\u0000\u0000\u0000\u0000\u0000\u0000\u0000\u0000\u0000\u0000\u0000\u0000",
        "\u0000\u0000\u0000\u0000\u0000\u0000\u0000\u0000\u0000\u0000\u0000\u0000\u0000\u0000\u0000\u0000\u0000\u0000\u0000\u0000\u0000\u0000\u0000\u0000\u0000\u0000\u0000\u0000\u0000\u0000\u0000\u0000\u0000\u0000\u0000\u0000\u0000\u0000\u0000\u0000\u0000\u0000\u0000\u0000\u0000\u0000\u0000\u0000\u0000\u0000",
        "\u0000\u0000\u0000\u0000\u0000\u0000\u0000\u0000\u0000\u0000\u0000\u0000\u0000\u0000\u0000\u0000\u0000\u0000\u0000\u0000\u0000\u0000\u0000\u0000\u0000\u0000\u0000\u0000\u0000\u0000\u0000\u0000\u0000\u0000\u0000\u0000\u0000\u0000\u0000\u0000\u0000\u0000\u0000\u0000\u0000\u0000\u0000\u0000\u0000\u0000",
        "\u0000\u0000\u0000\u0000\u0000\u0000\u0000\u0000\u0000\u0000\u0000\u0000\u0000\u0000\u0000\u0000\u0000\u0000\u0000\u0000\u0000\u0000\u0000\u0000\u0000\u0000\u0000\u0000\u0000\u0000\u0000\u0000\u0000\u0000\u0000\u0000\u0000\u0000\u0000\u0000\u0000\u0000\u0000\u0000\u0000\u0000\u0000\u0000\u0000\u0000",
        "\u0000\u0000\u0000\u0000\u0000\u0000\u0000\u0000\u0000\u0000\u0000\u0000\u0000\u0000\u0000\u0000\u0000\u0000\u0000\u0000\u0000\u0000\u0000\u0000\u0000\u0000\u0000\u0000\u0000\u0000\u0000\u0000\u0000\u0000\u0000\u0000\u0000\u0000\u0000\u0000\u0000\u0000\u0000\u0000\u0000\u0000\u0000\u0000\u0000\u0000",
        "\u0000\u0000\u0000\u0000\u0000\u0000\u0000\u0000\u0000\u0000\u0000\u0000\u0000\u0000\u0000\u0000\u0000\u0000\u0000\u0000\u0000\u0000\u0000\u0000\u0000\u0000\u0000\u0000\u0000\u0000\u0000\u0000\u0000\u0000\u0000\u0000\u0000\u0000\u0000\u0000\u0000\u0000\u0000\u0000\u0000\u0000\u0000\u0000\u0000\u0000",
        "\u0000\u0000\u0000\u0000\u0000\u0000\u0000\u0000\u0000\u0000\u0000\u0000\u0000\u0000\u0000\u0000\u0000\u0000\u0000\u0000\u0000\u0000\u0000\u0000\u0000\u0000\u0000\u0000\u0000\u0000\u0000\u0000\u0000\u0000\u0000\u0000\u0000\u0000\u0000\u0000\u0000\u0000\u0000\u0000\u0000\u0000\u0000\u0000\u0000\u0000",
        "\u0000\u0000\u0000\u0000\u0000\u0000\u0000\u0000\u0000\u0000\u0000\u0000\u0000\u0000\u0000\u0000\u0000\u0000\u0000\u0000\u0000\u0000\u0000\u0000\u0000\u0000\u0000\u0000\u0000\u0000\u0000\u0000\u0000\u0000\u0000\u0000\u0000\u0000\u0000\u0000\u0000\u0000\u0000\u0000\u0000\u0000\u0000\u0000\u0000\u0000",
        "\u0000\u0000\u0000\u0000\u0000\u0000\u0000\u0000\u0000\u0000\u0000\u0000\u0000\u0000\u0000\u0000\u0000\u0000\u0000\u0000\u0000\u0000\u0000\u0000\u0000\u0000\u0000\u0000\u0000\u0000\u0000\u0000\u0000\u0000\u0000\u0000\u0000\u0000\u0000\u0000\u0000\u0000\u0000\u0000\u0000\u0000\u0000\u0000\u0000\u0000",
        "\u0000\u0000\u0000\u0000\u0000\u0000\u0000\u0000\u0000\u0000\u0000\u0000\u0000\u0000\u0000\u0000\u0000\u0000\u0000\u0000\u0000\u0000\u0000\u0000\u0000\u0000\u0000\u0000\u0000\u0000\u0000\u0000\u0000\u0000\u0000\u0000\u0000\u0000\u0000\u0000\u0000\u0000\u0000\u0000\u0000\u0000\u0000\u0000\u0000\u0000",
        "\u0000\u0000\u0000\u0000\u0000\u0000\u0000\u0000\u0000\u0000\u0000\u0000\u0000\u0000\u0000\u0000\u0000\u0000\u0000\u0000\u0000\u0000\u0000\u0000\u0000\u0000\u0000\u0000\u0000\u0000\u0000\u0000\u0000\u0000\u0000\u0000\u0000\u0000\u0000\u0000\u0000\u0000\u0000\u0000\u0000\u0000\u0000\u0000\u0000\u0000",
        "\u0000\u0000\u0000\u0000\u0000\u0000\u0000\u0000\u0000\u0000\u0000\u0000\u0000\u0000\u0000\u0000\u0000\u0000\u0000\u0000\u0000\u0000\u0000\u0000\u0000\u0000\u0000\u0000\u0000\u0000\u0000\u0000\u0000\u0000\u0000\u0000\u0000\u0000\u0000\u0000\u0000\u0000\u0000\u0000\u0000\u0000\u0000\u0000\u0000\u0000",
        "\u0000\u0000\u0000\u0000\u0000\u0000\u0000\u0000\u0000\u0000\u0000\u0000\u0000\u0000\u0000\u0000\u0000\u0000\u0000\u0000\u0000\u0000\u0000\u0000\u0000\u0000\u0000\u0000\u0000\u0000\u0000\u0000\u0000\u0000\u0000\u0000\u0000\u0000\u0000\u0000\u0000\u0000\u0000\u0000\u0000\u0000\u0000\u0000\u0000\u0000",
        "\u0000\u0000\u0000\u0000\u0000\u0000\u0000\u0000\u0000\u0000\u0000\u0000\u0000\u0000\u0000\u0000\u0000\u0000\u0000\u0000\u0000\u0000\u0000\u0000\u0000\u0000\u0000\u0000\u0000\u0000\u0000\u0000\u0000\u0000\u0000\u0000\u0000\u0000\u0000\u0000\u0000\u0000\u0000\u0000\u0000\u0000\u0000\u0000\u0000\u0000",
        "\u0000\u0000\u0000\u0000\u0000\u0000\u0000\u0000\u0000\u0000\u0000\u0000\u0000\u0000\u0000\u0000\u0000\u0000\u0000\u0000\u0000\u0000\u0000\u0000\u0000\u0000\u0000\u0000\u0000\u0000\u0000\u0000\u0000\u0000\u0000\u0000\u0000\u0000\u0000\u0000\u0000\u0000\u0000\u0000\u0000\u0000\u0000\u0000\u0000\u0000",
        "\u0000\u0000\u0000\u0000\u0000\u0000\u0000\u0000\u0000\u0000\u0000\u0000\u0000\u0000\u0000\u0000\u0000\u0000\u0000\u0000\u0000\u0000\u0000\u0000\u0000\u0000\u0000\u0000\u0000\u0000\u0000\u0000\u0000\u0000\u0000\u0000\u0000\u0000\u0000\u0000\u0000\u0000\u0000\u0000\u0000\u0000\u0000\u0000\u0000\u0000",
        "\u0000\u0000\u0000\u0000\u0000\u0000\u0000\u0000\u0000\u0000\u0000\u0000\u0000\u0000\u0000\u0000\u0000\u0000\u0000\u0000\u0000\u0000\u0000\u0000\u0000\u0000\u0000\u0000\u0000\u0000\u0000\u0000\u0000\u0000\u0000\u0000\u0000\u0000\u0000\u0000\u0000\u0000\u0000\u0000\u0000\u0000\u0000\u0000\u0000\u0000",
