{
  "AcquisitionMatrixPE": 70,
  "AcquisitionNumber": 1,
  "AcquisitionTime": "13:30:36.770000",
  "BandwidthPerPixelPhaseEncode": 51.948,
  "BaseResolution": 70,
  "BodyPartExamined": "HEAD",
  "CoilCombinationMethod": "Sum of Squares",
  "ConsistencyInfo": "N4_VE11C_LATEST_20160120",
  "ConversionSoftware": "dcm2niix",
  "ConversionSoftwareVersion": "v1.0.20220720",
  "DerivedVendorReportedEchoSpacing": 0.000550001,
  "DeviceSerialNumber": "66061",
  "DwellTime": 3.3e-06,
  "EchoTime": 0.022,
  "EchoTrainLength": 35,
  "EffectiveEchoSpacing": 0.000275,
  "FlipAngle": 90,
  "HeudiconvVersion": "1.1.1",
  "ImageOrientationPatientDICOM": [0.999411, 0.0075148, 0.033493, -0.00122098, 0.982907, -0.184101],
  "ImageOrientationText": "Tra>Cor(-10.6)>Sag(2.0)",
  "ImageType": [
    "ORIGINAL",
    "PRIMARY",
    "M",
    "ND",
    "NORM",
    "MOSAIC"
],
  "ImagingFrequency": 123.255,
  "InPlanePhaseEncodingDirectionDICOM": "COL",
  "InstitutionAddress": "Street StreetNo,City/1c4204/,District,KR,ZIP",
  "InstitutionName": "SKKU",
  "InstitutionalDepartmentName": "Department",
  "MRAcquisitionType": "2D",
  "MagneticFieldStrength": 3,
  "Manufacturer": "Siemens",
  "ManufacturersModelName": "Prisma",
  "MatrixCoilMode": "GRAPPA",
  "Modality": "MR",
  "NonlinearGradientCorrection": false,
  "ParallelReductionFactorInPlane": 2,
  "PartialFourier": 1,
  "PatientPosition": "HFS",
  "PercentPhaseFOV": 100,
  "PercentSampling": 100,
  "PhaseEncodingDirection": "j-",
  "PhaseEncodingSteps": 70,
  "PhaseResolution": 1,
  "PixelBandwidth": 2165,
  "ProcedureStepDescription": "Head^PI:Others",
  "ProtocolName": "BOLD_ep2d_3x3x3_dimension1",
  "PulseSequenceDetails": "%SiemensSeq%\\ep2d_pace",
  "ReceiveCoilActiveElements": "HC1-7",
  "ReceiveCoilName": "HeadNeck_64",
  "ReconMatrixPE": 70,
  "RefLinesPE": 24,
  "RepetitionTime": 2,
  "SAR": 0.128738,
  "ScanOptions": "FS",
  "ScanningSequence": "EP",
  "SequenceName": "*epfid2d1_70",
  "SequenceVariant": "SK",
  "SeriesDescription": "BOLD_ep2d_3x3x3_dimension1",
  "SeriesNumber": 8,
  "ShimSetting": [5059, 3665, 4237, 314, -61, -286, -208, 3],
  "SliceThickness": 3,
  "SliceTiming": [0.99, 0, 1.0375, 0.0475, 1.085, 0.095, 1.1325, 0.1425, 1.1775, 0.1875, 1.225, 0.235, 1.2725, 0.2825, 1.32, 0.33, 1.3675, 0.3775, 1.415, 0.425, 1.4625, 0.4725, 1.5075, 0.5175, 1.555, 0.565, 1.6025, 0.6125, 1.65, 0.66, 1.6975, 0.7075, 1.745, 0.755, 1.7925, 0.8025, 1.8375, 0.8475, 1.885, 0.895, 1.9325, 0.9425],
  "SoftwareVersions": "syngo MR E11",
  "SpacingBetweenSlices": 3,
  "StationName": "AWP66061",
  "TaskName": "dimension",
  "TotalReadoutTime": 0.018975,
  "TxRefAmp": 216.971,
  "dcmmeta_affine": [
    [-2.998232126235962, -0.003662948962301016, 0.10291185230016708, 107.73483276367188],
    [-0.02254439704120159, 2.9487199783325195, -0.5518540740013123, -87.54619598388672],
    [0.10047893971204758, 0.5523021817207336, 2.947009801864624, -79.022216796875],
    [0.0, 0.0, 0.0, 1.0]
],
  "dcmmeta_reorient_transform": [
    [0.0, -1.0, 0.0, 69.0],
    [1.0, 0.0, 0.0, 0.0],
    [0.0, 0.0, -1.0, 41.0],
    [0.0, 0.0, 0.0, 1.0]
],
  "dcmmeta_shape": [70, 70, 42, 437],
  "dcmmeta_slice_dim": 2,
  "dcmmeta_version": 0.6,
  "global": {
    "const": {
      "AcquisitionMatrix": [70, 0, 0, 70],
      "AngioFlag": "N",
      "BitsAllocated": 16,
      "BitsStored": 12,
      "BodyPartExamined": "HEAD",
      "Columns": 490,
      "EchoNumbers": 1,
      "EchoTime": 22.0,
      "EchoTrainLength": 35,
      "FlipAngle": 90.0,
      "HighBit": 11,
      "ImageOrientationPatient": [0.99941070044505, 0.00751479883169, 0.03349297888285, -0.0012209830174, 0.98290662242241, -0.1841007354647],
      "ImagePositionPatient": [-740.56100000284, -717.25495641376, 174.79692081423],
      "ImageType": [
        "ORIGINAL",
        "PRIMARY",
        "M",
        "ND",
        "NORM",
        "MOSAIC"
],
      "ImagedNucleus": "1H",
      "ImagingFrequency": 123.254646,
      "InPlanePhaseEncodingDirection": "COL",
      "MRAcquisitionType": "2D",
      "MagneticFieldStrength": 3.0,
      "Manufacturer": "SIEMENS",
      "ManufacturerModelName": "Prisma",
      "Modality": "MR",
      "NumberOfAverages": 1.0,
      "NumberOfPhaseEncodingSteps": 70,
      "PercentPhaseFieldOfView": 100.0,
      "PercentSampling": 100.0,
      "PerformedProcedureStepStartTime": "125722.652000",
      "PhotometricInterpretation": "MONOCHROME2",
      "PixelBandwidth": 2165.0,
      "PixelRepresentation": 0,
      "PixelSpacing": [3.0, 3.0],
      "ProtocolName": "BOLD_ep2d_3x3x3_dimension1",
      "RepetitionTime": 2000.0,
      "Rows": 490,
      "SAR": 0.12873793673847,
      "SamplesPerPixel": 1,
      "ScanOptions": "FS",
      "ScanningSequence": "EP",
      "SequenceName": "*epfid2d1_70",
      "SequenceVariant": "SK",
      "SeriesDescription": "BOLD_ep2d_3x3x3_dimension1",
      "SeriesNumber": 8,
      "SeriesTime": "133129.001000",
      "SliceLocation": 65.173557978695,
      "SliceThickness": 3.0,
      "SmallestImagePixelValue": 0,
      "SoftwareVersions": "syngo MR E11",
      "SpacingBetweenSlices": 3.0000000436982,
      "SpecificCharacterSet": "ISO_IR 100",
      "StudyID": "1",
      "StudyTime": "125722.592000",
      "TransmitCoilName": "Body",
      "VariableFlipAngleFlag": "N",
      "WindowCenterWidthExplanation": "Algo1",
      "dBdt": 0.0},
    "slices": {}
  },
  "time": {
    "samples": {
      "AcquisitionNumber": [1, 2, 3, 4, 5, 6, 7, 8, 9, 10, 11, 12, 13, 14, 15, 16, 17, 18, 19, 20, 21, 22, 23, 24, 25, 26, 27, 28, 29, 30, 31, 32, 33, 34, 35, 36, 37, 38, 39, 40, 41, 42, 43, 44, 45, 46, 47, 48, 49, 50, 51, 52, 53, 54, 55, 56, 57, 58, 59, 60, 61, 62, 63, 64, 65, 66, 67, 68, 69, 70, 71, 72, 73, 74, 75, 76, 77, 78, 79, 80, 81, 82, 83, 84, 85, 86, 87, 88, 89, 90, 91, 92, 93, 94, 95, 96, 97, 98, 99, 100, 101, 102, 103, 104, 105, 106, 107, 108, 109, 110, 111, 112, 113, 114, 115, 116, 117, 118, 119, 120, 121, 122, 123, 124, 125, 126, 127, 128, 129, 130, 131, 132, 133, 134, 135, 136, 137, 138, 139, 140, 141, 142, 143, 144, 145, 146, 147, 148, 149, 150, 151, 152, 153, 154, 155, 156, 157, 158, 159, 160, 161, 162, 163, 164, 165, 166, 167, 168, 169, 170, 171, 172, 173, 174, 175, 176, 177, 178, 179, 180, 181, 182, 183, 184, 185, 186, 187, 188, 189, 190, 191, 192, 193, 194, 195, 196, 197, 198, 199, 200, 201, 202, 203, 204, 205, 206, 207, 208, 209, 210, 211, 212, 213, 214, 215, 216, 217, 218, 219, 220, 221, 222, 223, 224, 225, 226, 227, 228, 229, 230, 231, 232, 233, 234, 235, 236, 237, 238, 239, 240, 241, 242, 243, 244, 245, 246, 247, 248, 249, 250, 251, 252, 253, 254, 255, 256, 257, 258, 259, 260, 261, 262, 263, 264, 265, 266, 267, 268, 269, 270, 271, 272, 273, 274, 275, 276, 277, 278, 279, 280, 281, 282, 283, 284, 285, 286, 287, 288, 289, 290, 291, 292, 293, 294, 295, 296, 297, 298, 299, 300, 301, 302, 303, 304, 305, 306, 307, 308, 309, 310, 311, 312, 313, 314, 315, 316, 317, 318, 319, 320, 321, 322, 323, 324, 325, 326, 327, 328, 329, 330, 331, 332, 333, 334, 335, 336, 337, 338, 339, 340, 341, 342, 343, 344, 345, 346, 347, 348, 349, 350, 351, 352, 353, 354, 355, 356, 357, 358, 359, 360, 361, 362, 363, 364, 365, 366, 367, 368, 369, 370, 371, 372, 373, 374, 375, 376, 377, 378, 379, 380, 381, 382, 383, 384, 385, 386, 387, 388, 389, 390, 391, 392, 393, 394, 395, 396, 397, 398, 399, 400, 401, 402, 403, 404, 405, 406, 407, 408, 409, 410, 411, 412, 413, 414, 415, 416, 417, 418, 419, 420, 421, 422, 423, 424, 425, 426, 427, 428, 429, 430, 431, 432, 433, 434, 435, 436, 437],
      "AcquisitionTime": ["133036.770000", "133038.770000", "133040.770000", "133042.770000", "133044.770000", "133046.770000", "133048.770000", "133050.770000", "133052.770000", "133054.770000", "133056.770000", "133058.770000", "133100.770000", "133102.770000", "133104.770000", "133106.770000", "133108.770000", "133110.770000", "133112.770000", "133114.770000", "133116.770000", "133118.770000", "133120.770000", "133122.770000", "133124.770000", "133126.770000", "133128.770000", "133130.770000", "133132.770000", "133134.770000", "133136.770000", "133138.770000", "133140.770000", "133142.770000", "133144.770000", "133146.770000", "133148.770000", "133150.770000", "133152.770000", "133154.770000", "133156.770000", "133158.770000", "133200.770000", "133202.770000", "133204.770000", "133206.770000", "133208.770000", "133210.770000", "133212.770000", "133214.770000", "133216.770000", "133218.770000", "133220.770000", "133222.770000", "133224.770000", "133226.770000", "133228.770000", "133230.770000", "133232.770000", "133234.770000", "133236.770000", "133238.770000", "133240.770000", "133242.770000", "133244.770000", "133246.770000", "133248.770000", "133250.770000", "133252.770000", "133254.770000", "133256.770000", "133258.770000", "133300.770000", "133302.770000", "133304.770000", "133306.770000", "133308.770000", "133310.770000", "133312.770000", "133314.770000", "133316.770000", "133318.770000", "133320.770000", "133322.770000", "133324.770000", "133326.770000", "133328.770000", "133330.770000", "133332.770000", "133334.770000", "133336.770000", "133338.770000", "133340.770000", "133342.770000", "133344.770000", "133346.770000", "133348.770000", "133350.770000", "133352.770000", "133354.770000", "133356.770000", "133358.770000", "133400.770000", "133402.770000", "133404.770000", "133406.770000", "133408.770000", "133410.770000", "133412.770000", "133414.770000", "133416.770000", "133418.770000", "133420.770000", "133422.770000", "133424.770000", "133426.770000", "133428.770000", "133430.770000", "133432.770000", "133434.770000", "133436.770000", "133438.770000", "133440.770000", "133442.770000", "133444.770000", "133446.770000", "133448.770000", "133450.770000", "133452.770000", "133454.770000", "133456.770000", "133458.770000", "133500.770000", "133502.770000", "133504.770000", "133506.770000", "133508.770000", "133510.770000", "133512.770000", "133514.770000", "133516.770000", "133518.770000", "133520.770000", "133522.770000", "133524.770000", "133526.770000", "133528.770000", "133530.770000", "133532.770000", "133534.770000", "133536.770000", "133538.770000", "133540.770000", "133542.770000", "133544.770000", "133546.770000", "133548.770000", "133550.770000", "133552.770000", "133554.770000", "133556.770000", "133558.770000", "133600.770000", "133602.770000", "133604.770000", "133606.770000", "133608.770000", "133610.770000", "133612.770000", "133614.770000", "133616.770000", "133618.770000", "133620.770000", "133622.770000", "133624.770000", "133626.770000", "133628.770000", "133630.770000", "133632.770000", "133634.770000", "133636.770000", "133638.770000", "133640.770000", "133642.770000", "133644.770000", "133646.770000", "133648.770000", "133650.770000", "133652.770000", "133654.770000", "133656.770000", "133658.770000", "133700.770000", "133702.770000", "133704.770000", "133706.770000", "133708.770000", "133710.770000", "133712.770000", "133714.770000", "133716.770000", "133718.770000", "133720.770000", "133722.770000", "133724.770000", "133726.770000", "133728.770000", "133730.770000", "133732.770000", "133734.770000", "133736.770000", "133738.770000", "133740.770000", "133742.770000", "133744.770000", "133746.770000", "133748.770000", "133750.770000", "133752.770000", "133754.770000", "133756.770000", "133758.770000", "133800.770000", "133802.770000", "133804.770000", "133806.770000", "133808.770000", "133810.770000", "133812.770000", "133814.770000", "133816.770000", "133818.770000", "133820.770000", "133822.770000", "133824.770000", "133826.770000", "133828.770000", "133830.770000", "133832.770000", "133834.770000", "133836.770000", "133838.770000", "133840.770000", "133842.770000", "133844.770000", "133846.770000", "133848.770000", "133850.770000", "133852.770000", "133854.770000", "133856.770000", "133858.770000", "133900.770000", "133902.770000", "133904.770000", "133906.770000", "133908.770000", "133910.770000", "133912.770000", "133914.770000", "133916.770000", "133918.770000", "133920.770000", "133922.770000", "133924.770000", "133926.770000", "133928.770000", "133930.770000", "133932.770000", "133934.770000", "133936.770000", "133938.770000", "133940.770000", "133942.770000", "133944.770000", "133946.770000", "133948.770000", "133950.770000", "133952.770000", "133954.770000", "133956.770000", "133958.770000", "134000.770000", "134002.770000", "134004.770000", "134006.770000", "134008.770000", "134010.770000", "134012.770000", "134014.770000", "134016.770000", "134018.770000", "134020.770000", "134022.770000", "134024.770000", "134026.770000", "134028.770000", "134030.770000", "134032.770000", "134034.770000", "134036.770000", "134038.770000", "134040.770000", "134042.770000", "134044.770000", "134046.770000", "134048.770000", "134050.770000", "134052.770000", "134054.770000", "134056.770000", "134058.770000", "134100.770000", "134102.770000", "134104.770000", "134106.770000", "134108.770000", "134110.770000", "134112.770000", "134114.770000", "134116.770000", "134118.770000", "134120.770000", "134122.770000", "134124.770000", "134126.770000", "134128.770000", "134130.770000", "134132.770000", "134134.770000", "134136.770000", "134138.770000", "134140.770000", "134142.770000", "134144.770000", "134146.770000", "134148.770000", "134150.770000", "134152.770000", "134154.770000", "134156.770000", "134158.770000", "134200.770000", "134202.770000", "134204.770000", "134206.770000", "134208.770000", "134210.770000", "134212.770000", "134214.770000", "134216.770000", "134218.770000", "134220.770000", "134222.770000", "134224.770000", "134226.770000", "134228.770000", "134230.770000", "134232.770000", "134234.770000", "134236.770000", "134238.770000", "134240.770000", "134242.770000", "134244.770000", "134246.770000", "134248.770000", "134250.770000", "134252.770000", "134254.770000", "134256.770000", "134258.770000", "134300.770000", "134302.770000", "134304.770000", "134306.770000", "134308.770000", "134310.770000", "134312.770000", "134314.770000", "134316.770000", "134318.770000", "134320.770000", "134322.770000", "134324.770000", "134326.770000", "134328.770000", "134330.770000", "134332.770000", "134334.770000", "134336.770000", "134338.770000", "134340.770000", "134342.770000", "134344.770000", "134346.770000", "134348.770000", "134350.770000", "134352.770000", "134354.770000", "134356.770000", "134358.770000", "134400.770000", "134402.770000", "134404.770000", "134406.770000", "134408.770000", "134410.770000", "134412.770000", "134414.770000", "134416.770000", "134418.770000", "134420.770000", "134422.770000", "134424.770000", "134426.770000", "134428.770000", "134430.770000", "134432.770000", "134434.770000", "134436.770000", "134438.770000", "134440.770000", "134442.770000", "134444.770000", "134446.770000", "134448.770000", "134450.770000", "134452.770000", "134454.770000", "134456.770000", "134458.770000", "134500.770000", "134502.770000", "134504.770000", "134506.770000", "134508.770000"],
      "ContentTime": ["133129.005000", "133129.008000", "133129.011000", "133129.014000", "133129.017000", "133129.020000", "133129.022000", "133129.025000", "133129.028000", "133129.031000", "133129.033000", "133129.036000", "133129.039000", "133129.042000", "133129.053000", "133129.056000", "133129.059000", "133129.062000", "133129.065000", "133129.067000", "133129.070000", "133129.073000", "133129.076000", "133129.078000", "133129.081000", "133129.084000", "133208.986000", "133208.989000", "133208.991000", "133208.994000", "133209.004000", "133209.007000", "133209.010000", "133209.012000", "133209.015000", "133209.018000", "133209.021000", "133209.023000", "133209.026000", "133209.029000", "133209.032000", "133209.035000", "133209.037000", "133209.040000", "133209.043000", "133209.046000", "133248.987000", "133248.997000", "133249.000000", "133249.003000", "133249.006000", "133249.009000", "133249.012000", "133249.014000", "133249.017000", "133249.020000", "133249.023000", "133249.026000", "133249.029000", "133249.032000", "133249.034000", "133249.037000", "133249.040000", "133249.043000", "133249.045000", "133249.048000", "133328.986000", "133328.989000", "133328.991000", "133328.994000", "133328.997000", "133329.001000", "133329.003000", "133329.006000", "133329.009000", "133329.012000", "133329.014000", "133329.017000", "133329.020000", "133329.023000", "133329.026000", "133329.028000", "133329.031000", "133329.034000", "133329.037000", "133329.039000", "133408.986000", "133408.989000", "133408.991000", "133408.994000", "133408.997000", "133409.001000", "133409.004000", "133409.006000", "133409.009000", "133409.012000", "133409.015000", "133409.018000", "133409.020000", "133409.023000", "133409.026000", "133409.029000", "133409.032000", "133409.034000", "133409.037000", "133409.040000", "133448.986000", "133448.989000", "133448.991000", "133448.994000", "133448.997000", "133449.001000", "133449.003000", "133449.006000", "133449.009000", "133449.012000", "133449.015000", "133449.018000", "133449.020000", "133449.023000", "133449.026000", "133449.029000", "133449.032000", "133449.034000", "133449.037000", "133449.040000", "133528.987000", "133528.990000", "133528.992000", "133528.995000", "133528.998000", "133529.002000", "133529.005000", "133529.008000", "133529.010000", "133529.013000", "133529.016000", "133529.019000", "133529.022000", "133529.025000", "133529.027000", "133529.030000", "133529.033000", "133529.036000", "133529.038000", "133529.041000", "133608.986000", "133608.989000", "133608.991000", "133608.994000", "133608.997000", "133609.001000", "133609.004000", "133609.007000", "133609.009000", "133609.012000", "133609.015000", "133609.018000", "133609.020000", "133609.023000", "133609.026000", "133609.029000", "133609.032000", "133609.034000", "133609.037000", "133609.040000", "133628.986000", "133628.989000", "133628.992000", "133628.994000", "133628.997000", "133629.001000", "133629.004000", "133629.007000", "133629.010000", "133629.012000", "133708.986000", "133708.989000", "133708.992000", "133708.994000", "133708.997000", "133709.001000", "133709.004000", "133709.007000", "133709.009000", "133709.012000", "133709.015000", "133709.018000", "133709.021000", "133709.024000", "133709.026000", "133709.029000", "133709.032000", "133709.035000", "133709.037000", "133709.040000", "133748.987000", "133748.990000", "133748.992000", "133748.995000", "133748.998000", "133749.002000", "133749.005000", "133749.008000", "133749.011000", "133749.013000", "133749.016000", "133749.019000", "133749.029000", "133749.032000", "133749.034000", "133749.037000", "133749.040000", "133749.043000", "133749.046000", "133749.049000", "133828.986000", "133828.989000", "133828.991000", "133828.994000", "133828.997000", "133829.001000", "133829.004000", "133829.007000", "133829.010000", "133829.012000", "133829.015000", "133829.018000", "133829.021000", "133829.024000", "133829.027000", "133829.029000", "133829.032000", "133829.035000", "133829.038000", "133829.041000", "133908.986000", "133908.989000", "133909.007000", "133909.010000", "133909.013000", "133909.016000", "133909.019000", "133909.021000", "133909.024000", "133909.027000", "133909.030000", "133909.033000", "133909.036000", "133909.038000", "133909.041000", "133909.044000", "133909.047000", "133909.050000", "133909.052000", "133909.055000", "133948.987000", "133948.990000", "133948.993000", "133948.995000", "133948.998000", "133949.001000", "133949.004000", "133949.007000", "133949.009000", "133949.012000", "133949.015000", "133949.018000", "133949.020000", "133949.023000", "133949.026000", "133949.029000", "133949.032000", "133949.034000", "133949.037000", "133949.040000", "134028.986000", "134028.989000", "134028.991000", "134028.994000", "134028.997000", "134029.001000", "134029.004000", "134029.007000", "134029.009000", "134029.012000", "134029.015000", "134029.018000", "134029.021000", "134029.024000", "134029.026000", "134029.029000", "134029.032000", "134029.035000", "134029.037000", "134029.040000", "134108.986000", "134108.989000", "134108.992000", "134108.995000", "134108.997000", "134109.001000", "134109.004000", "134109.007000", "134109.009000", "134109.012000", "134109.015000", "134109.018000", "134109.021000", "134109.024000", "134109.026000", "134109.029000", "134109.032000", "134109.035000", "134109.038000", "134109.040000", "134148.986000", "134148.996000", "134149.000000", "134149.002000", "134149.005000", "134149.008000", "134149.011000", "134149.014000", "134149.017000", "134149.019000", "134149.022000", "134149.025000", "134149.028000", "134149.031000", "134149.033000", "134149.036000", "134149.039000", "134149.042000", "134149.045000", "134149.047000", "134228.987000", "134228.990000", "134228.993000", "134228.996000", "134229.000000", "134229.003000", "134229.006000", "134229.009000", "134229.011000", "134229.014000", "134229.017000", "134229.020000", "134229.023000", "134229.026000", "134229.029000", "134229.032000", "134229.034000", "134229.037000", "134229.040000", "134229.043000", "134308.986000", "134308.989000", "134308.991000", "134308.994000", "134308.997000", "134309.001000", "134309.004000", "134309.007000", "134309.009000", "134309.012000", "134309.015000", "134309.018000", "134309.020000", "134309.023000", "134309.026000", "134309.029000", "134309.032000", "134309.034000", "134309.037000", "134309.040000", "134348.986000", "134348.989000", "134348.991000", "134348.994000", "134348.997000", "134349.001000", "134349.003000", "134349.006000", "134349.009000", "134349.012000", "134349.015000", "134349.017000", "134349.020000", "134349.023000", "134349.026000", "134349.029000", "134349.032000", "134349.034000", "134349.037000", "134349.040000", "134428.987000", "134428.990000", "134428.993000", "134428.995000", "134428.998000", "134429.001000", "134429.004000", "134429.007000", "134429.009000", "134429.012000", "134429.015000", "134429.018000", "134429.020000", "134429.023000", "134429.026000", "134429.029000", "134429.032000", "134429.035000", "134429.037000", "134429.040000", "134508.986000", "134508.989000", "134508.992000", "134508.995000", "134508.998000", "134509.001000", "134509.004000", "134509.007000", "134509.010000", "134509.013000", "134509.016000", "134509.019000", "134509.022000", "134509.025000", "134509.027000", "134509.030000", "134509.033000", "134509.036000", "134509.038000", "134509.041000", "134510.120000"],
      "DataSetTrailingPadding": [
        "\u0000\u0000\u0000\u0000\u0000\u0000\u0000\u0000\u0000\u0000\u0000\u0000\u0000\u0000\u0000\u0000\u0000\u0000\u0000\u0000\u0000\u0000\u0000\u0000\u0000\u0000\u0000\u0000\u0000\u0000\u0000\u0000\u0000\u0000\u0000\u0000\u0000\u0000\u0000\u0000\u0000\u0000\u0000\u0000\u0000\u0000\u0000\u0000\u0000\u0000\u0000\u0000\u0000\u0000\u0000\u0000\u0000\u0000\u0000\u0000\u0000\u0000\u0000\u0000\u0000\u0000\u0000\u0000\u0000\u0000\u0000\u0000\u0000\u0000\u0000\u0000\u0000\u0000\u0000\u0000\u0000\u0000\u0000\u0000\u0000\u0000\u0000\u0000\u0000\u0000\u0000\u0000\u0000\u0000\u0000\u0000\u0000\u0000\u0000\u0000\u0000\u0000\u0000\u0000\u0000\u0000\u0000\u0000\u0000\u0000\u0000\u0000\u0000\u0000\u0000\u0000\u0000\u0000\u0000\u0000\u0000\u0000\u0000\u0000\u0000\u0000\u0000\u0000\u0000\u0000\u0000\u0000\u0000\u0000\u0000\u0000\u0000\u0000\u0000\u0000\u0000\u0000\u0000\u0000\u0000\u0000\u0000\u0000\u0000\u0000\u0000\u0000\u0000\u0000\u0000\u0000\u0000\u0000\u0000\u0000\u0000\u0000\u0000\u0000\u0000\u0000\u0000\u0000\u0000\u0000\u0000\u0000\u0000\u0000\u0000\u0000\u0000\u0000\u0000\u0000\u0000\u0000\u0000\u0000\u0000\u0000\u0000\u0000\u0000\u0000\u0000\u0000\u0000\u0000\u0000\u0000\u0000\u0000\u0000\u0000\u0000\u0000\u0000\u0000\u0000\u0000\u0000\u0000\u0000\u0000\u0000\u0000\u0000\u0000\u0000\u0000\u0000\u0000\u0000\u0000\u0000\u0000\u0000\u0000\u0000\u0000\u0000\u0000\u0000\u0000\u0000\u0000\u0000\u0000\u0000\u0000\u0000\u0000\u0000\u0000\u0000\u0000",
        "\u0000\u0000\u0000\u0000\u0000\u0000\u0000\u0000\u0000\u0000\u0000\u0000\u0000\u0000\u0000\u0000\u0000\u0000\u0000\u0000\u0000\u0000\u0000\u0000\u0000\u0000\u0000\u0000\u0000\u0000\u0000\u0000\u0000\u0000\u0000\u0000\u0000\u0000\u0000\u0000\u0000\u0000\u0000\u0000\u0000\u0000\u0000\u0000\u0000\u0000\u0000\u0000\u0000\u0000\u0000\u0000\u0000\u0000\u0000\u0000\u0000\u0000\u0000\u0000\u0000\u0000\u0000\u0000\u0000\u0000\u0000\u0000\u0000\u0000\u0000\u0000\u0000\u0000\u0000\u0000\u0000\u0000\u0000\u0000\u0000\u0000\u0000\u0000\u0000\u0000\u0000\u0000\u0000\u0000\u0000\u0000\u0000\u0000\u0000\u0000\u0000\u0000\u0000\u0000\u0000\u0000\u0000\u0000\u0000\u0000\u0000\u0000\u0000\u0000\u0000\u0000\u0000\u0000\u0000\u0000\u0000\u0000\u0000\u0000\u0000\u0000\u0000\u0000\u0000\u0000\u0000\u0000\u0000\u0000\u0000\u0000\u0000\u0000\u0000\u0000\u0000\u0000\u0000\u0000\u0000\u0000\u0000\u0000\u0000\u0000\u0000\u0000\u0000\u0000\u0000\u0000\u0000\u0000\u0000\u0000\u0000\u0000\u0000\u0000\u0000\u0000\u0000\u0000\u0000\u0000\u0000\u0000\u0000\u0000\u0000\u0000\u0000\u0000\u0000\u0000\u0000\u0000\u0000\u0000\u0000\u0000\u0000\u0000\u0000\u0000\u0000\u0000\u0000\u0000\u0000\u0000\u0000\u0000\u0000\u0000\u0000\u0000\u0000\u0000\u0000\u0000\u0000\u0000\u0000\u0000\u0000\u0000\u0000\u0000\u0000\u0000\u0000\u0000\u0000\u0000\u0000\u0000\u0000\u0000\u0000\u0000\u0000\u0000\u0000\u0000\u0000\u0000\u0000\u0000\u0000\u0000\u0000\u0000\u0000\u0000\u0000\u0000",
        "\u0000\u0000\u0000\u0000\u0000\u0000\u0000\u0000\u0000\u0000\u0000\u0000\u0000\u0000\u0000\u0000\u0000\u0000\u0000\u0000\u0000\u0000\u0000\u0000\u0000\u0000\u0000\u0000\u0000\u0000\u0000\u0000\u0000\u0000\u0000\u0000\u0000\u0000\u0000\u0000\u0000\u0000\u0000\u0000\u0000\u0000\u0000\u0000\u0000\u0000\u0000\u0000\u0000\u0000\u0000\u0000\u0000\u0000\u0000\u0000\u0000\u0000\u0000\u0000\u0000\u0000\u0000\u0000\u0000\u0000\u0000\u0000\u0000\u0000\u0000\u0000\u0000\u0000\u0000\u0000\u0000\u0000\u0000\u0000\u0000\u0000\u0000\u0000\u0000\u0000\u0000\u0000\u0000\u0000\u0000\u0000\u0000\u0000\u0000\u0000\u0000\u0000\u0000\u0000\u0000\u0000\u0000\u0000\u0000\u0000\u0000\u0000\u0000\u0000\u0000\u0000\u0000\u0000\u0000\u0000\u0000\u0000\u0000\u0000\u0000\u0000\u0000\u0000\u0000\u0000\u0000\u0000\u0000\u0000\u0000\u0000\u0000\u0000\u0000\u0000\u0000\u0000\u0000\u0000\u0000\u0000\u0000\u0000\u0000\u0000\u0000\u0000\u0000\u0000\u0000\u0000\u0000\u0000\u0000\u0000\u0000\u0000\u0000\u0000\u0000\u0000\u0000\u0000\u0000\u0000\u0000\u0000\u0000\u0000\u0000\u0000\u0000\u0000\u0000\u0000\u0000\u0000\u0000\u0000\u0000\u0000\u0000\u0000\u0000\u0000\u0000\u0000\u0000\u0000\u0000\u0000\u0000\u0000\u0000\u0000\u0000\u0000\u0000\u0000\u0000\u0000\u0000\u0000\u0000\u0000\u0000\u0000\u0000\u0000\u0000\u0000\u0000\u0000\u0000\u0000\u0000\u0000\u0000\u0000\u0000\u0000\u0000\u0000\u0000\u0000\u0000\u0000\u0000\u0000\u0000\u0000\u0000\u0000\u0000\u0000\u0000\u0000",
        "\u0000\u0000\u0000\u0000\u0000\u0000\u0000\u0000\u0000\u0000\u0000\u0000\u0000\u0000\u0000\u0000\u0000\u0000\u0000\u0000\u0000\u0000\u0000\u0000\u0000\u0000\u0000\u0000\u0000\u0000\u0000\u0000\u0000\u0000\u0000\u0000\u0000\u0000\u0000\u0000\u0000\u0000\u0000\u0000\u0000\u0000\u0000\u0000\u0000\u0000\u0000\u0000\u0000\u0000\u0000\u0000\u0000\u0000\u0000\u0000\u0000\u0000\u0000\u0000\u0000\u0000\u0000\u0000\u0000\u0000\u0000\u0000\u0000\u0000\u0000\u0000\u0000\u0000\u0000\u0000\u0000\u0000\u0000\u0000\u0000\u0000\u0000\u0000\u0000\u0000\u0000\u0000\u0000\u0000\u0000\u0000\u0000\u0000\u0000\u0000\u0000\u0000\u0000\u0000\u0000\u0000\u0000\u0000\u0000\u0000\u0000\u0000\u0000\u0000\u0000\u0000\u0000\u0000\u0000\u0000\u0000\u0000\u0000\u0000\u0000\u0000\u0000\u0000\u0000\u0000\u0000\u0000\u0000\u0000\u0000\u0000\u0000\u0000\u0000\u0000\u0000\u0000\u0000\u0000\u0000\u0000\u0000\u0000\u0000\u0000\u0000\u0000\u0000\u0000\u0000\u0000\u0000\u0000\u0000\u0000\u0000\u0000\u0000\u0000\u0000\u0000\u0000\u0000\u0000\u0000\u0000\u0000\u0000\u0000\u0000\u0000\u0000\u0000\u0000\u0000\u0000\u0000\u0000\u0000\u0000\u0000\u0000\u0000\u0000\u0000\u0000\u0000\u0000\u0000\u0000\u0000\u0000\u0000\u0000\u0000\u0000\u0000\u0000\u0000\u0000\u0000\u0000\u0000\u0000\u0000\u0000\u0000\u0000\u0000\u0000\u0000\u0000\u0000\u0000\u0000\u0000\u0000\u0000\u0000\u0000\u0000\u0000\u0000\u0000\u0000\u0000\u0000\u0000\u0000\u0000\u0000\u0000\u0000\u0000\u0000\u0000\u0000",
        "\u0000\u0000\u0000\u0000\u0000\u0000\u0000\u0000\u0000\u0000\u0000\u0000\u0000\u0000\u0000\u0000\u0000\u0000\u0000\u0000\u0000\u0000\u0000\u0000\u0000\u0000\u0000\u0000\u0000\u0000\u0000\u0000\u0000\u0000\u0000\u0000\u0000\u0000\u0000\u0000\u0000\u0000\u0000\u0000\u0000\u0000\u0000\u0000\u0000\u0000\u0000\u0000\u0000\u0000\u0000\u0000\u0000\u0000\u0000\u0000\u0000\u0000\u0000\u0000\u0000\u0000\u0000\u0000\u0000\u0000\u0000\u0000\u0000\u0000\u0000\u0000\u0000\u0000\u0000\u0000\u0000\u0000\u0000\u0000\u0000\u0000\u0000\u0000\u0000\u0000\u0000\u0000\u0000\u0000\u0000\u0000\u0000\u0000\u0000\u0000\u0000\u0000\u0000\u0000\u0000\u0000\u0000\u0000\u0000\u0000\u0000\u0000\u0000\u0000\u0000\u0000\u0000\u0000\u0000\u0000\u0000\u0000\u0000\u0000\u0000\u0000\u0000\u0000\u0000\u0000\u0000\u0000\u0000\u0000\u0000\u0000\u0000\u0000\u0000\u0000\u0000\u0000\u0000\u0000\u0000\u0000\u0000\u0000\u0000\u0000\u0000\u0000\u0000\u0000\u0000\u0000\u0000\u0000\u0000\u0000\u0000\u0000\u0000\u0000\u0000\u0000\u0000\u0000\u0000\u0000\u0000\u0000\u0000\u0000\u0000\u0000\u0000\u0000\u0000\u0000\u0000\u0000\u0000\u0000\u0000\u0000\u0000\u0000\u0000\u0000\u0000\u0000\u0000\u0000\u0000\u0000\u0000\u0000\u0000\u0000\u0000\u0000\u0000\u0000\u0000\u0000\u0000\u0000\u0000\u0000\u0000\u0000\u0000\u0000\u0000\u0000\u0000\u0000\u0000\u0000\u0000\u0000\u0000\u0000\u0000\u0000\u0000\u0000\u0000\u0000\u0000\u0000\u0000\u0000\u0000\u0000\u0000\u0000\u0000\u0000",
