{
  "AcquisitionMatrixPE": 70,
  "AcquisitionNumber": 1,
  "AcquisitionTime": "13:44:54.710000",
  "BandwidthPerPixelPhaseEncode": 51.948,
  "BaseResolution": 70,
  "BodyPartExamined": "HEAD",
  "CoilCombinationMethod": "Sum of Squares",
  "ConsistencyInfo": "N4_VE11C_LATEST_20160120",
  "ConversionSoftware": "dcm2niix",
  "ConversionSoftwareVersion": "v1.0.20220720",
  "DerivedVendorReportedEchoSpacing": 0.000550001,
  "DeviceSerialNumber": "66061",
  "DwellTime": 3.3e-06,
  "EchoTime": 0.022,
  "EchoTrainLength": 35,
  "EffectiveEchoSpacing": 0.000275,
  "FlipAngle": 90,
  "HeudiconvVersion": "1.1.1",
  "ImageOrientationPatientDICOM": [0.99935, 0.00783077, 0.035178, -0.00122092, 0.982904, -0.184114],
  "ImageOrientationText": "Tra>Cor(-10.6)>Sag(2.1)",
  "ImageType": [
    "ORIGINAL",
    "PRIMARY",
    "M",
    "ND",
    "NORM",
    "MOSAIC"
],
  "ImagingFrequency": 123.255,
  "InPlanePhaseEncodingDirectionDICOM": "COL",
  "InstitutionAddress": "Street StreetNo,City/1c4204/,District,KR,ZIP",
  "InstitutionName": "SKKU",
  "InstitutionalDepartmentName": "Department",
  "MRAcquisitionType": "2D",
  "MagneticFieldStrength": 3,
  "Manufacturer": "Siemens",
  "ManufacturersModelName": "Prisma",
  "MatrixCoilMode": "GRAPPA",
  "Modality": "MR",
  "NonlinearGradientCorrection": false,
  "ParallelReductionFactorInPlane": 2,
  "PartialFourier": 1,
  "PatientPosition": "HFS",
  "PercentPhaseFOV": 100,
  "PercentSampling": 100,
  "PhaseEncodingDirection": "j-",
  "PhaseEncodingSteps": 70,
  "PhaseResolution": 1,
  "PixelBandwidth": 2165,
  "ProcedureStepDescription": "Head^PI:Others",
  "ProtocolName": "BOLD_ep2d_3x3x3_feature2",
  "PulseSequenceDetails": "%SiemensSeq%\\ep2d_pace",
  "ReceiveCoilActiveElements": "HC1-7",
  "ReceiveCoilName": "HeadNeck_64",
  "ReconMatrixPE": 70,
  "RefLinesPE": 24,
  "RepetitionTime": 2,
  "SAR": 0.119715,
  "ScanOptions": "FS",
  "ScanningSequence": "EP",
  "SequenceName": "*epfid2d1_70",
  "SequenceVariant": "SK",
  "SeriesDescription": "BOLD_ep2d_3x3x3_feature2",
  "SeriesNumber": 9,
  "ShimSetting": [5064, 3689, 4441, 446, -36, -66, 97, 33],
  "SliceThickness": 3,
  "SliceTiming": [0.99, 0, 1.0375, 0.0475, 1.085, 0.095, 1.1325, 0.1425, 1.1775, 0.1875, 1.225, 0.235, 1.2725, 0.2825, 1.32, 0.33, 1.3675, 0.3775, 1.415, 0.425, 1.4625, 0.4725, 1.5075, 0.5175, 1.555, 0.565, 1.6025, 0.6125, 1.65, 0.66, 1.6975, 0.7075, 1.745, 0.755, 1.79, 0.8025, 1.8375, 0.8475, 1.885, 0.895, 1.9325, 0.9425],
  "SoftwareVersions": "syngo MR E11",
  "SpacingBetweenSlices": 3,
  "StationName": "AWP66061",
  "TaskName": "feature",
  "TotalReadoutTime": 0.018975,
  "TxRefAmp": 219.323,
  "dcmmeta_affine": [
    [-2.998051166534424, -0.003662755945697427, 0.10805519670248032, 100.98734283447266],
    [-0.023492299020290375, 2.9487123489379883, -0.5518540740013123, -81.4886703491211],
    [0.105534128844738, 0.5523416996002197, 2.9468257427215576, -69.55382537841797],
    [0.0, 0.0, 0.0, 1.0]
],
  "dcmmeta_reorient_transform": [
    [0.0, -1.0, 0.0, 69.0],
    [1.0, 0.0, 0.0, 0.0],
    [0.0, 0.0, -1.0, 41.0],
    [0.0, 0.0, 0.0, 1.0]
],
  "dcmmeta_shape": [70, 70, 42, 221],
  "dcmmeta_slice_dim": 2,
  "dcmmeta_version": 0.6,
  "global": {
    "const": {
      "AcquisitionMatrix": [70, 0, 0, 70],
      "AngioFlag": "N",
      "BitsAllocated": 16,
      "BitsStored": 12,
      "BodyPartExamined": "HEAD",
      "Columns": 490,
      "EchoNumbers": 1,
      "EchoTime": 22.0,
      "EchoTrainLength": 35,
      "FlipAngle": 90.0,
      "HighBit": 11,
      "ImageOrientationPatient": [0.99935038116473, 0.00783076625464, 0.0351780438027, -0.0012209186642, 0.98290415497466, -0.1841139090106],
      "ImagePositionPatient": [-733.98643961109, -723.50947538448, 183.20720266364],
      "ImageType": [
        "ORIGINAL",
        "PRIMARY",
        "M",
        "ND",
        "NORM",
        "MOSAIC"
],
      "ImagedNucleus": "1H",
      "ImagingFrequency": 123.254646,
      "InPlanePhaseEncodingDirection": "COL",
      "MRAcquisitionType": "2D",
      "MagneticFieldStrength": 3.0,
      "Manufacturer": "SIEMENS",
      "ManufacturerModelName": "Prisma",
      "Modality": "MR",
      "NumberOfAverages": 1.0,
      "NumberOfPhaseEncodingSteps": 70,
      "PercentPhaseFieldOfView": 100.0,
      "PercentSampling": 100.0,
      "PerformedProcedureStepStartTime": "124814.018000",
      "PhotometricInterpretation": "MONOCHROME2",
      "PixelBandwidth": 2165.0,
      "PixelRepresentation": 0,
      "PixelSpacing": [3.0, 3.0],
      "ProtocolName": "BOLD_ep2d_3x3x3_feature2",
      "RepetitionTime": 2000.0,
      "Rows": 490,
      "SAR": 0.11971482215532,
      "SamplesPerPixel": 1,
      "ScanOptions": "FS",
      "ScanningSequence": "EP",
      "SequenceName": "*epfid2d1_70",
      "SequenceVariant": "SK",
      "SeriesDescription": "BOLD_ep2d_3x3x3_feature2",
      "SeriesNumber": 9,
      "SeriesTime": "134539.343000",
      "SliceLocation": 73.306359329166,
      "SliceThickness": 3.0,
      "SmallestImagePixelValue": 0,
      "SoftwareVersions": "syngo MR E11",
      "SpacingBetweenSlices": 3.0000000189977,
      "SpecificCharacterSet": "ISO_IR 100",
      "StudyID": "1",
      "StudyTime": "124813.931000",
      "TransmitCoilName": "Body",
      "VariableFlipAngleFlag": "N",
      "WindowCenterWidthExplanation": "Algo1",
      "dBdt": 0.0},
    "slices": {}
  },
  "time": {
    "samples": {
      "AcquisitionNumber": [1, 2, 3, 4, 5, 6, 7, 8, 9, 10, 11, 12, 13, 14, 15, 16, 17, 18, 19, 20, 21, 22, 23, 24, 25, 26, 27, 28, 29, 30, 31, 32, 33, 34, 35, 36, 37, 38, 39, 40, 41, 42, 43, 44, 45, 46, 47, 48, 49, 50, 51, 52, 53, 54, 55, 56, 57, 58, 59, 60, 61, 62, 63, 64, 65, 66, 67, 68, 69, 70, 71, 72, 73, 74, 75, 76, 77, 78, 79, 80, 81, 82, 83, 84, 85, 86, 87, 88, 89, 90, 91, 92, 93, 94, 95, 96, 97, 98, 99, 100, 101, 102, 103, 104, 105, 106, 107, 108, 109, 110, 111, 112, 113, 114, 115, 116, 117, 118, 119, 120, 121, 122, 123, 124, 125, 126, 127, 128, 129, 130, 131, 132, 133, 134, 135, 136, 137, 138, 139, 140, 141, 142, 143, 144, 145, 146, 147, 148, 149, 150, 151, 152, 153, 154, 155, 156, 157, 158, 159, 160, 161, 162, 163, 164, 165, 166, 167, 168, 169, 170, 171, 172, 173, 174, 175, 176, 177, 178, 179, 180, 181, 182, 183, 184, 185, 186, 187, 188, 189, 190, 191, 192, 193, 194, 195, 196, 197, 198, 199, 200, 201, 202, 203, 204, 205, 206, 207, 208, 209, 210, 211, 212, 213, 214, 215, 216, 217, 218, 219, 220, 221],
      "AcquisitionTime": ["134454.710000", "134456.710000", "134458.710000", "134500.710000", "134502.710000", "134504.710000", "134506.710000", "134508.710000", "134510.710000", "134512.710000", "134514.710000", "134516.710000", "134518.710000", "134520.710000", "134522.710000", "134524.710000", "134526.710000", "134528.710000", "134530.710000", "134532.710000", "134534.710000", "134536.710000", "134538.710000", "134540.710000", "134542.710000", "134544.710000", "134546.710000", "134548.710000", "134550.710000", "134552.710000", "134554.710000", "134556.710000", "134558.710000", "134600.710000", "134602.710000", "134604.710000", "134606.710000", "134608.710000", "134610.710000", "134612.710000", "134614.710000", "134616.710000", "134618.710000", "134620.710000", "134622.710000", "134624.710000", "134626.710000", "134628.710000", "134630.710000", "134632.710000", "134634.710000", "134636.710000", "134638.710000", "134640.710000", "134642.710000", "134644.710000", "134646.710000", "134648.710000", "134650.710000", "134652.710000", "134654.710000", "134656.710000", "134658.710000", "134700.710000", "134702.710000", "134704.710000", "134706.710000", "134708.710000", "134710.710000", "134712.710000", "134714.710000", "134716.710000", "134718.710000", "134720.710000", "134722.710000", "134724.710000", "134726.710000", "134728.710000", "134730.710000", "134732.710000", "134734.710000", "134736.710000", "134738.710000", "134740.710000", "134742.710000", "134744.710000", "134746.710000", "134748.710000", "134750.710000", "134752.710000", "134754.710000", "134756.710000", "134758.710000", "134800.710000", "134802.710000", "134804.710000", "134806.710000", "134808.710000", "134810.710000", "134812.710000", "134814.710000", "134816.710000", "134818.710000", "134820.710000", "134822.710000", "134824.710000", "134826.710000", "134828.710000", "134830.710000", "134832.710000", "134834.710000", "134836.710000", "134838.710000", "134840.710000", "134842.710000", "134844.710000", "134846.710000", "134848.710000", "134850.710000", "134852.710000", "134854.710000", "134856.710000", "134858.710000", "134900.710000", "134902.710000", "134904.710000", "134906.710000", "134908.710000", "134910.710000", "134912.710000", "134914.710000", "134916.710000", "134918.710000", "134920.710000", "134922.710000", "134924.710000", "134926.710000", "134928.710000", "134930.710000", "134932.710000", "134934.710000", "134936.710000", "134938.710000", "134940.710000", "134942.710000", "134944.710000", "134946.710000", "134948.710000", "134950.710000", "134952.710000", "134954.710000", "134956.710000", "134958.710000", "135000.710000", "135002.710000", "135004.710000", "135006.710000", "135008.710000", "135010.710000", "135012.710000", "135014.710000", "135016.710000", "135018.710000", "135020.710000", "135022.710000", "135024.710000", "135026.710000", "135028.710000", "135030.710000", "135032.710000", "135034.710000", "135036.710000", "135038.710000", "135040.710000", "135042.710000", "135044.710000", "135046.710000", "135048.710000", "135050.710000", "135052.710000", "135054.710000", "135056.710000", "135058.710000", "135100.710000", "135102.710000", "135104.710000", "135106.710000", "135108.710000", "135110.710000", "135112.710000", "135114.710000", "135116.710000", "135118.710000", "135120.710000", "135122.710000", "135124.710000", "135126.710000", "135128.710000", "135130.710000", "135132.710000", "135134.710000", "135136.710000", "135138.710000", "135140.710000", "135142.710000", "135144.710000", "135146.710000", "135148.710000", "135150.710000", "135152.710000", "135154.710000", "135156.710000", "135158.710000", "135200.710000", "135202.710000", "135204.710000", "135206.710000", "135208.710000", "135210.710000", "135212.710000", "135214.710000"],
      "ContentTime": ["134539.346000", "134539.350000", "134539.352000", "134539.355000", "134539.357000", "134539.360000", "134539.370000", "134539.373000", "134539.376000", "134539.379000", "134539.386000", "134539.389000", "134539.398000", "134539.400000", "134539.403000", "134539.406000", "134539.408000", "134539.411000", "134539.413000", "134539.416000", "134539.419000", "134539.421000", "134619.329000", "134619.332000", "134619.335000", "134619.339000", "134619.346000", "134619.348000", "134619.351000", "134619.354000", "134619.356000", "134619.359000", "134619.362000", "134619.364000", "134619.367000", "134619.369000", "134619.372000", "134619.375000", "134619.377000", "134619.386000", "134619.388000", "134619.391000", "134659.329000", "134659.332000", "134659.335000", "134659.338000", "134659.340000", "134659.343000", "134659.346000", "134659.348000", "134659.351000", "134659.354000", "134659.356000", "134659.359000", "134659.361000", "134659.364000", "134659.372000", "134659.374000", "134659.377000", "134659.380000", "134659.382000", "134659.385000", "134739.331000", "134739.333000", "134739.336000", "134739.339000", "134739.341000", "134739.344000", "134739.347000", "134739.349000", "134739.352000", "134739.355000", "134739.357000", "134739.360000", "134739.362000", "134739.365000", "134739.368000", "134739.371000", "134739.373000", "134739.376000", "134739.378000", "134739.381000", "134819.331000", "134819.333000", "134819.336000", "134819.339000", "134819.341000", "134819.344000", "134819.347000", "134819.349000", "134819.352000", "134819.354000", "134819.357000", "134819.360000", "134819.362000", "134819.365000", "134819.367000", "134819.370000", "134819.373000", "134819.375000", "134819.378000", "134819.381000", "134859.330000", "134859.333000", "134859.335000", "134859.338000", "134859.340000", "134859.343000", "134859.346000", "134859.348000", "134859.351000", "134859.354000", "134859.356000", "134859.359000", "134859.362000", "134859.364000", "134859.367000", "134859.369000", "134859.372000", "134859.375000", "134859.377000", "134859.380000", "134939.330000", "134939.332000", "134939.335000", "134939.338000", "134939.340000", "134939.343000", "134939.346000", "134939.348000", "134939.351000", "134939.354000", "134939.356000", "134939.359000", "134939.361000", "134939.364000", "134939.367000", "134939.369000", "134939.372000", "134939.375000", "134939.377000", "134939.380000", "135019.331000", "135019.334000", "135019.336000", "135019.339000", "135019.342000", "135019.344000", "135019.347000", "135019.349000", "135019.352000", "135019.355000", "135019.357000", "135019.360000", "135019.363000", "135019.365000", "135019.368000", "135019.371000", "135019.373000", "135019.376000", "135019.378000", "135019.381000", "135059.330000", "135059.332000", "135059.345000", "135059.348000", "135059.351000", "135059.353000", "135059.356000", "135059.359000", "135059.361000", "135059.364000", "135059.367000", "135059.369000", "135059.372000", "135059.374000", "135059.377000", "135059.380000", "135059.382000", "135059.385000", "135059.388000", "135059.390000", "135139.330000", "135139.332000", "135139.335000", "135139.338000", "135139.340000", "135139.343000", "135139.346000", "135139.348000", "135139.351000", "135139.354000", "135139.356000", "135139.359000", "135139.361000", "135139.364000", "135139.367000", "135139.369000", "135139.372000", "135139.375000", "135139.377000", "135139.380000", "135216.743000", "135216.746000", "135216.748000", "135216.751000", "135216.754000", "135216.756000", "135216.759000", "135216.762000", "135216.764000", "135216.767000", "135216.770000", "135216.773000", "135216.778000", "135216.782000", "135216.786000", "135216.789000", "135216.793000", "135216.796000", "135216.805000"],
      "InstanceCreationTime": ["134539.346000", "134539.350000", "134539.352000", "134539.355000", "134539.357000", "134539.360000", "134539.370000", "134539.373000", "134539.376000", "134539.379000", "134539.386000", "134539.389000", "134539.398000", "134539.400000", "134539.403000", "134539.406000", "134539.408000", "134539.411000", "134539.413000", "134539.416000", "134539.419000", "134539.421000", "134619.329000", "134619.332000", "134619.335000", "134619.339000", "134619.346000", "134619.348000", "134619.351000", "134619.354000", "134619.356000", "134619.359000", "134619.362000", "134619.364000", "134619.367000", "134619.369000", "134619.372000", "134619.375000", "134619.377000", "134619.386000", "134619.388000", "134619.391000", "134659.329000", "134659.332000", "134659.335000", "134659.338000", "134659.340000", "134659.343000", "134659.346000", "134659.348000", "134659.351000", "134659.354000", "134659.356000", "134659.359000", "134659.361000", "134659.364000", "134659.372000", "134659.374000", "134659.377000", "134659.380000", "134659.382000", "134659.385000", "134739.331000", "134739.333000", "134739.336000", "134739.339000", "134739.341000", "134739.344000", "134739.347000", "134739.349000", "134739.352000", "134739.355000", "134739.357000", "134739.360000", "134739.362000", "134739.365000", "134739.368000", "134739.371000", "134739.373000", "134739.376000", "134739.378000", "134739.381000", "134819.331000", "134819.333000", "134819.336000", "134819.339000", "134819.341000", "134819.344000", "134819.347000", "134819.349000", "134819.352000", "134819.354000", "134819.357000", "134819.360000", "134819.362000", "134819.365000", "134819.367000", "134819.370000", "134819.373000", "134819.375000", "134819.378000", "134819.381000", "134859.330000", "134859.333000", "134859.335000", "134859.338000", "134859.340000", "134859.343000", "134859.346000", "134859.348000", "134859.351000", "134859.354000", "134859.356000", "134859.359000", "134859.362000", "134859.364000", "134859.367000", "134859.369000", "134859.372000", "134859.375000", "134859.377000", "134859.380000", "134939.330000", "134939.332000", "134939.335000", "134939.338000", "134939.340000", "134939.343000", "134939.346000", "134939.348000", "134939.351000", "134939.354000", "134939.356000", "134939.359000", "134939.361000", "134939.364000", "134939.367000", "134939.369000", "134939.372000", "134939.375000", "134939.377000", "134939.380000", "135019.331000", "135019.334000", "135019.336000", "135019.339000", "135019.342000", "135019.344000", "135019.347000", "135019.349000", "135019.352000", "135019.355000", "135019.357000", "135019.360000", "135019.363000", "135019.365000", "135019.368000", "135019.371000", "135019.373000", "135019.376000", "135019.378000", "135019.381000", "135059.330000", "135059.332000", "135059.345000", "135059.348000", "135059.351000", "135059.353000", "135059.356000", "135059.359000", "135059.361000", "135059.364000", "135059.367000", "135059.369000", "135059.372000", "135059.374000", "135059.377000", "135059.380000", "135059.382000", "135059.385000", "135059.388000", "135059.390000", "135139.330000", "135139.332000", "135139.335000", "135139.338000", "135139.340000", "135139.343000", "135139.346000", "135139.348000", "135139.351000", "135139.354000", "135139.356000", "135139.359000", "135139.361000", "135139.364000", "135139.367000", "135139.369000", "135139.372000", "135139.375000", "135139.377000", "135139.380000", "135216.743000", "135216.746000", "135216.748000", "135216.751000", "135216.754000", "135216.756000", "135216.759000", "135216.762000", "135216.764000", "135216.767000", "135216.770000", "135216.773000", "135216.778000", "135216.782000", "135216.786000", "135216.789000", "135216.793000", "135216.796000", "135216.805000"],
      "InstanceNumber": [1, 2, 3, 4, 5, 6, 7, 8, 9, 10, 11, 12, 13, 14, 15, 16, 17, 18, 19, 20, 21, 22, 23, 24, 25, 26, 27, 28, 29, 30, 31, 32, 33, 34, 35, 36, 37, 38, 39, 40, 41, 42, 43, 44, 45, 46, 47, 48, 49, 50, 51, 52, 53, 54, 55, 56, 57, 58, 59, 60, 61, 62, 63, 64, 65, 66, 67, 68, 69, 70, 71, 72, 73, 74, 75, 76, 77, 78, 79, 80, 81, 82, 83, 84, 85, 86, 87, 88, 89, 90, 91, 92, 93, 94, 95, 96, 97, 98, 99, 100, 101, 102, 103, 104, 105, 106, 107, 108, 109, 110, 111, 112, 113, 114, 115, 116, 117, 118, 119, 120, 121, 122, 123, 124, 125, 126, 127, 128, 129, 130, 131, 132, 133, 134, 135, 136, 137, 138, 139, 140, 141, 142, 143, 144, 145, 146, 147, 148, 149, 150, 151, 152, 153, 154, 155, 156, 157, 158, 159, 160, 161, 162, 163, 164, 165, 166, 167, 168, 169, 170, 171, 172, 173, 174, 175, 176, 177, 178, 179, 180, 181, 182, 183, 184, 185, 186, 187, 188, 189, 190, 191, 192, 193, 194, 195, 196, 197, 198, 199, 200, 201, 202, 203, 204, 205, 206, 207, 208, 209, 210, 211, 212, 213, 214, 215, 216, 217, 218, 219, 220, 221],
      "LargestImagePixelValue": [1747, 1797, 1705, 1819, 2189, 1711, 1773, 2110, 1652, 1982, 1680, 1809, 1801, 1748, 1990, 1721, 2156, 1718, 1869, 2251, 1715, 1717, 2087, 1965, 1667, 2085, 1699, 1645, 2130, 1715, 1756, 1990, 1869, 1697, 1931, 2167, 1639, 1778, 2125, 1643, 1823, 1868, 1692, 1760, 2097, 1858, 1856, 1746, 1707, 1709, 1761, 1668, 1850, 1821, 1852, 1768, 1633, 1697, 1783, 2073, 1646, 1855, 2007, 1637, 2170, 1701, 1688, 2109, 1685, 1910, 1834, 1656, 1713, 1780, 1700, 1799, 2092, 1644, 1909, 1827, 1647, 1729, 2081, 2533, 1736, 1832, 1806, 2119, 1628, 1726, 1661, 1862, 2130, 1964, 1671, 1989, 2146, 2198, 1625, 1738, 1655, 1625, 1657, 1761, 1711, 1764, 1817, 2197, 1696, 1823, 1808, 1677, 1968, 1836, 1706, 1954, 1800, 1707, 1760, 1792, 2217, 2152, 1675, 2232, 1699, 1638, 1857, 1765, 1685, 2118, 1692, 1697, 2116, 1723, 2346, 1638, 1807, 1674, 1655, 2108, 1639, 1861, 1898, 1642, 2190, 1638, 1915, 1632, 1999, 1816, 1853, 2477, 1638, 1698, 1891, 2237, 2001, 1756, 1946, 1653, 1854, 1694, 1652, 1751, 1829, 1768, 1677, 2297, 1775, 1746, 1723, 1769, 2195, 1843, 2423, 1764, 2140, 1661, 1761, 1676, 1641, 2120, 1737, 1844, 1852, 1685, 1735, 1869, 1694, 1868, 1920, 1650, 2266, 1897, 1714, 2314, 1783, 1649, 2196, 1710, 1879, 1889, 1725, 1818, 2078, 1705, 1775, 1946, 1718, 1807, 2036, 1716, 2060, 1709, 1861, 1695, 1897, 1805, 1868, 2003, 1707],
      "WindowCenter": [823.0, 823.0, 824.0, 824.0, 824.0, 823.0, 822.0, 823.0, 822.0, 822.0, 822.0, 822.0, 823.0, 823.0, 823.0, 822.0, 823.0, 822.0, 823.0, 824.0, 823.0, 822.0, 823.0, 823.0, 821.0, 822.0, 822.0, 821.0, 822.0, 821.0, 822.0, 822.0, 822.0, 821.0, 822.0, 822.0, 821.0, 822.0, 822.0, 822.0, 823.0, 823.0, 823.0, 823.0, 823.0, 821.0, 821.0, 821.0, 821.0, 822.0, 823.0, 823.0, 823.0, 822.0, 822.0, 822.0, 823.0, 823.0, 822.0, 823.0, 822.0, 823.0, 823.0, 822.0, 822.0, 822.0, 823.0, 823.0, 822.0, 822.0, 822.0, 822.0, 822.0, 822.0, 822.0, 823.0, 824.0, 822.0, 822.0, 822.0, 822.0, 823.0, 824.0, 825.0, 822.0, 822.0, 821.0, 821.0, 820.0, 821.0, 822.0, 823.0, 824.0, 823.0, 822.0, 822.0, 821.0, 819.0, 818.0, 819.0, 820.0, 822.0, 822.0, 822.0, 823.0, 824.0, 824.0, 824.0, 823.0, 822.0, 823.0, 822.0, 823.0, 823.0, 822.0, 823.0, 820.0, 824.0, 823.0, 824.0, 824.0, 823.0, 822.0, 823.0, 822.0, 822.0, 823.0, 823.0, 823.0, 824.0, 824.0, 823.0, 824.0, 823.0, 824.0, 822.0, 822.0, 823.0, 823.0, 824.0, 823.0, 823.0, 824.0, 824.0, 824.0, 822.0, 823.0, 823.0, 824.0, 823.0, 823.0, 824.0, 822.0, 822.0, 822.0, 821.0, 820.0, 820.0, 820.0, 820.0, 821.0, 821.0, 823.0, 824.0, 825.0, 825.0, 824.0, 824.0, 823.0, 822.0, 824.0, 825.0, 826.0, 824.0, 824.0, 822.0, 822.0, 822.0, 822.0, 823.0, 823.0, 824.0, 823.0, 823.0, 821.0, 823.0, 824.0, 825.0, 824.0, 824.0, 824.0, 823.0, 824.0, 824.0, 823.0, 824.0, 824.0, 822.0, 817.0, 816.0, 816.0, 817.0, 817.0, 817.0, 817.0, 816.0, 816.0, 818.0, 817.0, 817.0, 818.0, 816.0, 817.0, 816.0, 816.0, 817.0, 817.0, 817.0, 817.0, 817.0, 816.0],
      "WindowWidth": [1754.0, 1755.0, 1757.0, 1757.0, 1759.0, 1754.0, 1753.0, 1756.0, 1753.0, 1754.0, 1753.0, 1753.0, 1755.0, 1753.0, 1756.0, 1753.0, 1756.0, 1752.0, 1754.0, 1759.0, 1754.0, 1753.0, 1756.0, 1754.0, 1750.0, 1754.0, 1752.0, 1750.0, 1753.0, 1750.0, 1751.0, 1754.0, 1753.0, 1751.0, 1753.0, 1754.0, 1750.0, 1751.0, 1755.0, 1751.0, 1754.0, 1755.0, 1755.0, 1755.0, 1755.0, 1749.0, 1749.0, 1749.0, 1750.0, 1752.0, 1754.0, 1755.0, 1756.0, 1754.0, 1754.0, 1754.0, 1755.0, 1754.0, 1753.0, 1754.0, 1752.0, 1754.0, 1755.0, 1751.0, 1755.0, 1753.0, 1754.0, 1756.0, 1751.0, 1753.0, 1753.0, 1752.0, 1753.0, 1753.0, 1752.0, 1755.0, 1757.0, 1752.0, 1753.0, 1754.0, 1753.0, 1754.0, 1758.0, 1763.0, 1753.0, 1752.0, 1750.0, 1751.0, 1747.0, 1750.0, 1751.0, 1756.0, 1759.0, 1757.0, 1753.0, 1753.0, 1750.0, 1747.0, 1742.0, 1745.0, 1748.0, 1751.0, 1752.0, 1754.0, 1756.0, 1757.0, 1757.0, 1759.0, 1753.0, 1753.0, 1753.0, 1752.0, 1754.0, 1754.0, 1753.0, 1754.0, 1750.0, 1758.0, 1755.0, 1757.0, 1759.0, 1757.0, 1751.0, 1756.0, 1752.0, 1752.0, 1755.0, 1756.0, 1756.0, 1759.0, 1757.0, 1756.0, 1758.0, 1755.0, 1758.0, 1752.0, 1753.0, 1754.0, 1754.0, 1757.0, 1754.0, 1755.0, 1757.0, 1755.0, 1758.0, 1752.0, 1755.0, 1754.0, 1757.0, 1755.0, 1754.0, 1759.0, 1751.0, 1752.0, 1753.0, 1751.0, 1747.0, 1746.0, 1748.0, 1747.0, 1750.0, 1750.0, 1753.0, 1758.0, 1759.0, 1760.0, 1757.0, 1759.0, 1754.0, 1754.0, 1758.0, 1761.0, 1763.0, 1759.0, 1760.0, 1753.0, 1754.0, 1751.0, 1753.0, 1754.0, 1754.0, 1758.0, 1755.0, 1755.0, 1749.0, 1756.0, 1757.0, 1760.0, 1758.0, 1758.0, 1759.0, 1755.0, 1759.0, 1757.0, 1756.0, 1761.0, 1757.0, 1750.0, 1733.0, 1728.0, 1729.0, 1731.0, 1730.0, 1730.0, 1733.0, 1727.0, 1728.0, 1733.0, 1731.0, 1731.0, 1733.0, 1728.0, 1732.0, 1728.0, 1729.0, 1729.0, 1730.0, 1729.0, 1730.0, 1731.0, 1729.0]
    },
    "slices": {}
  }
}