{
  "AcquisitionMatrixPE": 70,
  "AcquisitionNumber": 1,
  "AcquisitionTime": "13:20:49.345000",
  "BandwidthPerPixelPhaseEncode": 51.948,
  "BaseResolution": 70,
  "BodyPartExamined": "HEAD",
  "CoilCombinationMethod": "Sum of Squares",
  "ConsistencyInfo": "N4_VE11C_LATEST_20160120",
  "ConversionSoftware": "dcm2niix",
  "ConversionSoftwareVersion": "v1.0.20220720",
  "DerivedVendorReportedEchoSpacing": 0.000550001,
  "DeviceSerialNumber": "66061",
  "DwellTime": 3.3e-06,
  "EchoTime": 0.022,
  "EchoTrainLength": 35,
  "EffectiveEchoSpacing": 0.000275,
  "FlipAngle": 90,
  "HeudiconvVersion": "1.1.1",
  "ImageOrientationPatientDICOM": [0.999905, 0.00312009, 0.0134203, -0.00122163, 0.990263, -0.139207],
  "ImageOrientationText": "Tra>Cor(-8.0)>Sag(0.8)",
  "ImageType": [
    "ORIGINAL",
    "PRIMARY",
    "M",
    "ND",
    "NORM",
    "MOSAIC"
],
  "ImagingFrequency": 123.254,
  "InPlanePhaseEncodingDirectionDICOM": "COL",
  "InstitutionAddress": "Street StreetNo,City/1c4204/,District,KR,ZIP",
  "InstitutionName": "SKKU",
  "InstitutionalDepartmentName": "Department",
  "MRAcquisitionType": "2D",
  "MagneticFieldStrength": 3,
  "Manufacturer": "Siemens",
  "ManufacturersModelName": "Prisma",
  "MatrixCoilMode": "GRAPPA",
  "Modality": "MR",
  "NonlinearGradientCorrection": false,
  "ParallelReductionFactorInPlane": 2,
  "PartialFourier": 1,
  "PatientPosition": "HFS",
  "PercentPhaseFOV": 100,
  "PercentSampling": 100,
  "PhaseEncodingDirection": "j-",
  "PhaseEncodingSteps": 70,
  "PhaseResolution": 1,
  "PixelBandwidth": 2165,
  "ProcedureStepDescription": "Head^PI:Others",
  "ProtocolName": "BOLD_ep2d_3x3x3_response1",
  "PulseSequenceDetails": "%SiemensSeq%\\ep2d_pace",
  "ReceiveCoilActiveElements": "HC1-7",
  "ReceiveCoilName": "HeadNeck_64",
  "ReconMatrixPE": 70,
  "RefLinesPE": 24,
  "RepetitionTime": 2,
  "SAR": 0.116265,
  "ScanOptions": "FS",
  "ScanningSequence": "EP",
  "SequenceName": "*epfid2d1_70",
  "SequenceVariant": "SK",
  "SeriesDescription": "BOLD_ep2d_3x3x3_response1",
  "SeriesNumber": 6,
  "ShimSetting": [5060, 3685, 4435, 347, -16, -53, 71, 86],
  "SliceThickness": 3,
  "SliceTiming": [0.99, 0, 1.0375, 0.0475, 1.085, 0.095, 1.1325, 0.1425, 1.18, 0.19, 1.2275, 0.2375, 1.2725, 0.2825, 1.32, 0.33, 1.3675, 0.3775, 1.415, 0.425, 1.4625, 0.4725, 1.51, 0.52, 1.5575, 0.5675, 1.6025, 0.6125, 1.65, 0.66, 1.6975, 0.7075, 1.745, 0.755, 1.7925, 0.8025, 1.84, 0.85, 1.8875, 0.8975, 1.9325, 0.9425],
  "SoftwareVersions": "syngo MR E11",
  "SpacingBetweenSlices": 3,
  "StationName": "AWP66061",
  "TaskName": "response",
  "TotalReadoutTime": 0.018975,
  "TxRefAmp": 216.218,
  "dcmmeta_affine": [
    [-2.9997153282165527, -0.0036648751702159643, 0.04117177054286003, 104.94757080078125],
    [-0.009360259398818016, 2.970787525177002, -0.4175323247909546, -95.12640380859375],
    [0.04026079550385475, 0.4176211655139923, 2.970517158508301, -54.74114227294922],
    [0.0, 0.0, 0.0, 1.0]
],
  "dcmmeta_reorient_transform": [
    [0.0, -1.0, 0.0, 69.0],
    [1.0, 0.0, 0.0, 0.0],
    [0.0, 0.0, -1.0, 41.0],
    [0.0, 0.0, 0.0, 1.0]
],
  "dcmmeta_shape": [70, 70, 42, 341],
  "dcmmeta_slice_dim": 2,
  "dcmmeta_version": 0.6,
  "global": {
    "const": {
      "AcquisitionMatrix": [70, 0, 0, 70],
      "AngioFlag": "N",
      "BitsAllocated": 16,
      "BitsStored": 12,
      "BodyPartExamined": "HEAD",
      "Columns": 490,
      "EchoNumbers": 1,
      "EchoTime": 22.0,
      "EchoTrainLength": 35,
      "FlipAngle": 90.0,
      "HighBit": 11,
      "ImageOrientationPatient": [0.99990507626805, 0.00312008633454, 0.01342026507417, -0.0012216250576, 0.9902625431807, -0.1392070515653],
      "ImagePositionPatient": [-735.5533143752, -718.57017167381, 175.11159037815],
      "ImageType": [
        "ORIGINAL",
        "PRIMARY",
        "M",
        "ND",
        "NORM",
        "MOSAIC"
],
      "ImagedNucleus": "1H",
      "ImagingFrequency": 123.254474,
      "InPlanePhaseEncodingDirection": "COL",
      "MRAcquisitionType": "2D",
      "MagneticFieldStrength": 3.0,
      "Manufacturer": "SIEMENS",
      "ManufacturerModelName": "Prisma",
      "Modality": "MR",
      "NumberOfAverages": 1.0,
      "NumberOfPhaseEncodingSteps": 70,
      "PercentPhaseFieldOfView": 100.0,
      "PercentSampling": 100.0,
      "PerformedProcedureStepStartTime": "124326.815000",
      "PhotometricInterpretation": "MONOCHROME2",
      "PixelBandwidth": 2165.0,
      "PixelRepresentation": 0,
      "PixelSpacing": [3.0, 3.0],
      "ProtocolName": "BOLD_ep2d_3x3x3_response1",
      "RepetitionTime": 2000.0,
      "Rows": 490,
      "SAR": 0.11626549221939,
      "SamplesPerPixel": 1,
      "ScanOptions": "FS",
      "ScanningSequence": "EP",
      "SequenceName": "*epfid2d1_70",
      "SequenceVariant": "SK",
      "SeriesDescription": "BOLD_ep2d_3x3x3_response1",
      "SeriesNumber": 6,
      "SeriesTime": "132145.815000",
      "SliceLocation": 83.476574464578,
      "SliceThickness": 3.0,
      "SmallestImagePixelValue": 0,
      "SoftwareVersions": "syngo MR E11",
      "SpacingBetweenSlices": 2.999999977729,
      "SpecificCharacterSet": "ISO_IR 100",
      "StudyID": "1",
      "StudyTime": "124326.749000",
      "TransmitCoilName": "Body",
      "VariableFlipAngleFlag": "N",
      "WindowCenterWidthExplanation": "Algo1",
      "dBdt": 0.0},
    "slices": {}
  },
  "time": {
    "samples": {
      "AcquisitionNumber": [1, 2, 3, 4, 5, 6, 7, 8, 9, 10, 11, 12, 13, 14, 15, 16, 17, 18, 19, 20, 21, 22, 23, 24, 25, 26, 27, 28, 29, 30, 31, 32, 33, 34, 35, 36, 37, 38, 39, 40, 41, 42, 43, 44, 45, 46, 47, 48, 49, 50, 51, 52, 53, 54, 55, 56, 57, 58, 59, 60, 61, 62, 63, 64, 65, 66, 67, 68, 69, 70, 71, 72, 73, 74, 75, 76, 77, 78, 79, 80, 81, 82, 83, 84, 85, 86, 87, 88, 89, 90, 91, 92, 93, 94, 95, 96, 97, 98, 99, 100, 101, 102, 103, 104, 105, 106, 107, 108, 109, 110, 111, 112, 113, 114, 115, 116, 117, 118, 119, 120, 121, 122, 123, 124, 125, 126, 127, 128, 129, 130, 131, 132, 133, 134, 135, 136, 137, 138, 139, 140, 141, 142, 143, 144, 145, 146, 147, 148, 149, 150, 151, 152, 153, 154, 155, 156, 157, 158, 159, 160, 161, 162, 163, 164, 165, 166, 167, 168, 169, 170, 171, 172, 173, 174, 175, 176, 177, 178, 179, 180, 181, 182, 183, 184, 185, 186, 187, 188, 189, 190, 191, 192, 193, 194, 195, 196, 197, 198, 199, 200, 201, 202, 203, 204, 205, 206, 207, 208, 209, 210, 211, 212, 213, 214, 215, 216, 217, 218, 219, 220, 221, 222, 223, 224, 225, 226, 227, 228, 229, 230, 231, 232, 233, 234, 235, 236, 237, 238, 239, 240, 241, 242, 243, 244, 245, 246, 247, 248, 249, 250, 251, 252, 253, 254, 255, 256, 257, 258, 259, 260, 261, 262, 263, 264, 265, 266, 267, 268, 269, 270, 271, 272, 273, 274, 275, 276, 277, 278, 279, 280, 281, 282, 283, 284, 285, 286, 287, 288, 289, 290, 291, 292, 293, 294, 295, 296, 297, 298, 299, 300, 301, 302, 303, 304, 305, 306, 307, 308, 309, 310, 311, 312, 313, 314, 315, 316, 317, 318, 319, 320, 321, 322, 323, 324, 325, 326, 327, 328, 329, 330, 331, 332, 333, 334, 335, 336, 337, 338, 339, 340, 341],
      "AcquisitionTime": ["132049.345000", "132051.345000", "132053.345000", "132055.345000", "132057.345000", "132059.345000", "132101.345000", "132103.345000", "132105.345000", "132107.345000", "132109.345000", "132111.345000", "132113.345000", "132115.345000", "132117.345000", "132119.345000", "132121.345000", "132123.345000", "132125.345000", "132127.345000", "132129.345000", "132131.345000", "132133.345000", "132135.345000", "132137.345000", "132139.345000", "132141.345000", "132143.345000", "132145.345000", "132147.345000", "132149.345000", "132151.345000", "132153.345000", "132155.345000", "132157.345000", "132159.345000", "132201.345000", "132203.345000", "132205.345000", "132207.345000", "132209.345000", "132211.345000", "132213.345000", "132215.345000", "132217.345000", "132219.345000", "132221.345000", "132223.345000", "132225.345000", "132227.345000", "132229.345000", "132231.345000", "132233.345000", "132235.345000", "132237.345000", "132239.345000", "132241.345000", "132243.345000", "132245.345000", "132247.345000", "132249.345000", "132251.345000", "132253.345000", "132255.345000", "132257.345000", "132259.345000", "132301.345000", "132303.345000", "132305.345000", "132307.345000", "132309.345000", "132311.345000", "132313.345000", "132315.345000", "132317.345000", "132319.345000", "132321.345000", "132323.345000", "132325.345000", "132327.345000", "132329.345000", "132331.345000", "132333.345000", "132335.345000", "132337.345000", "132339.345000", "132341.345000", "132343.345000", "132345.345000", "132347.345000", "132349.345000", "132351.345000", "132353.345000", "132355.345000", "132357.345000", "132359.345000", "132401.345000", "132403.345000", "132405.345000", "132407.345000", "132409.345000", "132411.345000", "132413.345000", "132415.345000", "132417.345000", "132419.345000", "132421.345000", "132423.345000", "132425.345000", "132427.345000", "132429.345000", "132431.345000", "132433.345000", "132435.345000", "132437.345000", "132439.345000", "132441.345000", "132443.345000", "132445.345000", "132447.345000", "132449.345000", "132451.345000", "132453.345000", "132455.345000", "132457.345000", "132459.345000", "132501.345000", "132503.345000", "132505.345000", "132507.345000", "132509.345000", "132511.345000", "132513.345000", "132515.345000", "132517.345000", "132519.345000", "132521.345000", "132523.345000", "132525.345000", "132527.345000", "132529.345000", "132531.345000", "132533.345000", "132535.345000", "132537.345000", "132539.345000", "132541.345000", "132543.345000", "132545.345000", "132547.345000", "132549.345000", "132551.345000", "132553.345000", "132555.345000", "132557.345000", "132559.345000", "132601.345000", "132603.345000", "132605.345000", "132607.345000", "132609.345000", "132611.345000", "132613.345000", "132615.345000", "132617.345000", "132619.345000", "132621.345000", "132623.345000", "132625.345000", "132627.345000", "132629.345000", "132631.345000", "132633.345000", "132635.345000", "132637.345000", "132639.345000", "132641.345000", "132643.345000", "132645.345000", "132647.345000", "132649.345000", "132651.345000", "132653.345000", "132655.345000", "132657.345000", "132659.345000", "132701.345000", "132703.345000", "132705.345000", "132707.345000", "132709.345000", "132711.345000", "132713.345000", "132715.345000", "132717.345000", "132719.345000", "132721.345000", "132723.345000", "132725.345000", "132727.345000", "132729.345000", "132731.345000", "132733.345000", "132735.345000", "132737.345000", "132739.345000", "132741.345000", "132743.345000", "132745.345000", "132747.345000", "132749.345000", "132751.345000", "132753.345000", "132755.345000", "132757.345000", "132759.345000", "132801.345000", "132803.345000", "132805.345000", "132807.345000", "132809.345000", "132811.345000", "132813.345000", "132815.345000", "132817.345000", "132819.345000", "132821.345000", "132823.345000", "132825.345000", "132827.345000", "132829.345000", "132831.345000", "132833.345000", "132835.345000", "132837.345000", "132839.345000", "132841.345000", "132843.345000", "132845.345000", "132847.345000", "132849.345000", "132851.345000", "132853.345000", "132855.345000", "132857.345000", "132859.345000", "132901.345000", "132903.345000", "132905.345000", "132907.345000", "132909.345000", "132911.345000", "132913.345000", "132915.345000", "132917.345000", "132919.345000", "132921.345000", "132923.345000", "132925.345000", "132927.345000", "132929.345000", "132931.345000", "132933.345000", "132935.345000", "132937.345000", "132939.345000", "132941.345000", "132943.345000", "132945.345000", "132947.345000", "132949.345000", "132951.345000", "132953.345000", "132955.345000", "132957.345000", "132959.345000", "133001.345000", "133003.345000", "133005.345000", "133007.345000", "133009.345000", "133011.345000", "133013.345000", "133015.345000", "133017.345000", "133019.345000", "133021.345000", "133023.345000", "133025.345000", "133027.345000", "133029.345000", "133031.345000", "133033.345000", "133035.345000", "133037.345000", "133039.345000", "133041.345000", "133043.345000", "133045.345000", "133047.345000", "133049.345000", "133051.345000", "133053.345000", "133055.345000", "133057.345000", "133059.345000", "133101.345000", "133103.345000", "133105.345000", "133107.345000", "133109.345000", "133111.345000", "133113.345000", "133115.345000", "133117.345000", "133119.345000", "133121.345000", "133123.345000", "133125.345000", "133127.345000", "133129.345000", "133131.345000", "133133.345000", "133135.345000", "133137.345000", "133139.345000", "133141.345000", "133143.345000", "133145.345000", "133147.345000", "133149.345000", "133151.345000", "133153.345000", "133155.345000", "133157.345000", "133159.345000", "133201.345000", "133203.345000", "133205.345000", "133207.345000", "133209.345000"],
      "ContentTime": ["132145.818000", "132145.822000", "132145.824000", "132145.832000", "132145.839000", "132145.841000", "132145.844000", "132145.847000", "132145.849000", "132145.852000", "132145.855000", "132145.857000", "132145.860000", "132145.863000", "132145.865000", "132145.868000", "132145.871000", "132145.873000", "132145.876000", "132145.879000", "132145.881000", "132145.884000", "132145.887000", "132145.889000", "132145.892000", "132145.894000", "132145.897000", "132145.900000", "132225.813000", "132225.817000", "132225.819000", "132225.822000", "132225.825000", "132225.835000", "132225.838000", "132225.840000", "132225.843000", "132225.846000", "132225.848000", "132225.851000", "132225.853000", "132225.856000", "132225.859000", "132225.861000", "132225.864000", "132225.867000", "132225.869000", "132225.872000", "132305.813000", "132305.819000", "132305.822000", "132305.824000", "132305.827000", "132305.830000", "132305.832000", "132305.839000", "132305.841000", "132305.844000", "132305.847000", "132305.849000", "132305.852000", "132305.855000", "132305.857000", "132305.860000", "132305.863000", "132305.865000", "132305.868000", "132305.870000", "132345.813000", "132345.816000", "132345.818000", "132345.821000", "132345.824000", "132345.826000", "132345.829000", "132345.831000", "132345.834000", "132345.837000", "132345.839000", "132345.842000", "132345.845000", "132345.847000", "132345.850000", "132345.853000", "132345.855000", "132345.858000", "132345.861000", "132345.864000", "132425.814000", "132425.817000", "132425.819000", "132425.822000", "132425.825000", "132425.827000", "132425.830000", "132425.833000", "132425.835000", "132425.838000", "132425.841000", "132425.843000", "132425.846000", "132425.849000", "132425.851000", "132425.854000", "132425.857000", "132425.859000", "132425.862000", "132425.865000", "132505.812000", "132505.816000", "132505.818000", "132505.821000", "132505.823000", "132505.826000", "132505.829000", "132505.831000", "132505.834000", "132505.837000", "132505.839000", "132505.842000", "132505.845000", "132505.848000", "132505.850000", "132505.853000", "132505.856000", "132505.858000", "132505.861000", "132505.864000", "132545.813000", "132545.816000", "132545.818000", "132545.821000", "132545.824000", "132545.826000", "132545.829000", "132545.832000", "132545.834000", "132545.837000", "132545.840000", "132545.842000", "132545.845000", "132545.848000", "132545.850000", "132545.853000", "132545.856000", "132545.858000", "132545.861000", "132545.864000", "132625.813000", "132625.817000", "132625.819000", "132625.822000", "132625.825000", "132625.827000", "132625.830000", "132625.833000", "132625.835000", "132625.838000", "132625.841000", "132625.843000", "132625.846000", "132625.849000", "132625.855000", "132625.858000", "132625.860000", "132625.863000", "132625.866000", "132625.869000", "132705.814000", "132705.817000", "132705.819000", "132705.822000", "132705.825000", "132705.827000", "132705.830000", "132705.832000", "132705.835000", "132705.838000", "132705.841000", "132705.843000", "132705.846000", "132705.849000", "132705.851000", "132705.854000", "132705.857000", "132705.859000", "132705.862000", "132705.865000", "132745.813000", "132745.816000", "132745.818000", "132745.821000", "132745.824000", "132745.826000", "132745.829000", "132745.832000", "132745.834000", "132745.837000", "132745.840000", "132745.842000", "132745.845000", "132745.848000", "132745.850000", "132745.853000", "132745.856000", "132745.859000", "132745.861000", "132745.864000", "132825.812000", "132825.816000", "132825.818000", "132825.821000", "132825.824000", "132825.826000", "132825.829000", "132825.832000", "132825.834000", "132825.837000", "132825.840000", "132825.842000", "132825.845000", "132825.848000", "132825.850000", "132825.853000", "132825.855000", "132825.858000", "132825.861000", "132825.864000", "132845.814000", "132845.817000", "132845.819000", "132845.822000", "132845.825000", "132845.827000", "132845.830000", "132845.833000", "132845.835000", "132845.838000", "132925.814000", "132925.817000", "132925.819000", "132925.822000", "132925.825000", "132925.827000", "132925.830000", "132925.833000", "132925.835000", "132925.838000", "132925.841000", "132925.843000", "132925.846000", "132925.849000", "132925.851000", "132925.854000", "132925.857000", "132925.860000", "132925.862000", "132925.865000", "133005.812000", "133005.815000", "133005.818000", "133005.821000", "133005.823000", "133005.826000", "133005.829000", "133005.831000", "133005.834000", "133005.837000", "133005.839000", "133005.842000", "133005.845000", "133005.847000", "133005.850000", "133005.853000", "133005.856000", "133005.858000", "133005.861000", "133005.864000", "133045.813000", "133045.815000", "133045.818000", "133045.821000", "133045.824000", "133045.826000", "133045.829000", "133045.832000", "133045.834000", "133045.837000", "133045.840000", "133045.843000", "133045.845000", "133045.848000", "133045.851000", "133045.853000", "133045.856000", "133045.859000", "133045.861000", "133045.870000", "133125.814000", "133125.816000", "133125.819000", "133125.822000", "133125.825000", "133125.827000", "133125.830000", "133125.835000", "133125.838000", "133125.840000", "133125.843000", "133125.846000", "133125.848000", "133125.851000", "133125.854000", "133125.857000", "133125.859000", "133125.862000", "133125.865000", "133125.867000", "133205.813000", "133205.815000", "133205.818000", "133205.821000", "133205.824000", "133205.834000", "133205.837000", "133205.840000", "133205.843000", "133205.845000", "133205.848000", "133205.851000", "133205.853000", "133205.856000", "133205.859000", "133205.861000", "133205.864000", "133205.867000", "133205.869000", "133205.872000", "133211.377000", "133211.380000", "133211.383000"],
      "InstanceCreationTime": ["132145.818000", "132145.822000", "132145.824000", "132145.832000", "132145.839000", "132145.841000", "132145.844000", "132145.847000", "132145.849000", "132145.852000", "132145.855000", "132145.857000", "132145.860000", "132145.863000", "132145.865000", "132145.868000", "132145.871000", "132145.873000", "132145.876000", "132145.879000", "132145.881000", "132145.884000", "132145.887000", "132145.889000", "132145.892000", "132145.894000", "132145.897000", "132145.900000", "132225.813000", "132225.817000", "132225.819000", "132225.822000", "132225.825000", "132225.835000", "132225.838000", "132225.840000", "132225.843000", "132225.846000", "132225.848000", "132225.851000", "132225.853000", "132225.856000", "132225.859000", "132225.861000", "132225.864000", "132225.867000", "132225.869000", "132225.872000", "132305.813000", "132305.819000", "132305.822000", "132305.824000", "132305.827000", "132305.830000", "132305.832000", "132305.839000", "132305.841000", "132305.844000", "132305.847000", "132305.849000", "132305.852000", "132305.855000", "132305.857000", "132305.860000", "132305.863000", "132305.865000", "132305.868000", "132305.870000", "132345.813000", "132345.816000", "132345.818000", "132345.821000", "132345.824000", "132345.826000", "132345.829000", "132345.831000", "132345.834000", "132345.837000", "132345.839000", "132345.842000", "132345.845000", "132345.847000", "132345.850000", "132345.853000", "132345.855000", "132345.858000", "132345.861000", "132345.864000", "132425.814000", "132425.817000", "132425.819000", "132425.822000", "132425.825000", "132425.827000", "132425.830000", "132425.833000", "132425.835000", "132425.838000", "132425.841000", "132425.843000", "132425.846000", "132425.849000", "132425.851000", "132425.854000", "132425.857000", "132425.859000", "132425.862000", "132425.865000", "132505.812000", "132505.816000", "132505.818000", "132505.821000", "132505.823000", "132505.826000", "132505.829000", "132505.831000", "132505.834000", "132505.837000", "132505.839000", "132505.842000", "132505.845000", "132505.848000", "132505.850000", "132505.853000", "132505.856000", "132505.858000", "132505.861000", "132505.864000", "132545.813000", "132545.816000", "132545.818000", "132545.821000", "132545.824000", "132545.826000", "132545.829000", "132545.832000", "132545.834000", "132545.837000", "132545.840000", "132545.842000", "132545.845000", "132545.848000", "132545.850000", "132545.853000", "132545.856000", "132545.858000", "132545.861000", "132545.864000", "132625.813000", "132625.817000", "132625.819000", "132625.822000", "132625.825000", "132625.827000", "132625.830000", "132625.833000", "132625.835000", "132625.838000", "132625.841000", "132625.843000", "132625.846000", "132625.849000", "132625.855000", "132625.858000", "132625.860000", "132625.863000", "132625.866000", "132625.869000", "132705.814000", "132705.817000", "132705.819000", "132705.822000", "132705.825000", "132705.827000", "132705.830000", "132705.832000", "132705.835000", "132705.838000", "132705.841000", "132705.843000", "132705.846000", "132705.849000", "132705.851000", "132705.854000", "132705.857000", "132705.859000", "132705.862000", "132705.865000", "132745.813000", "132745.816000", "132745.818000", "132745.821000", "132745.824000", "132745.826000", "132745.829000", "132745.832000", "132745.834000", "132745.837000", "132745.840000", "132745.842000", "132745.845000", "132745.848000", "132745.850000", "132745.853000", "132745.856000", "132745.859000", "132745.861000", "132745.864000", "132825.812000", "132825.816000", "132825.818000", "132825.821000", "132825.824000", "132825.826000", "132825.829000", "132825.832000", "132825.834000", "132825.837000", "132825.840000", "132825.842000", "132825.845000", "132825.848000", "132825.850000", "132825.853000", "132825.855000", "132825.858000", "132825.861000", "132825.864000", "132845.814000", "132845.817000", "132845.819000", "132845.822000", "132845.825000", "132845.827000", "132845.830000", "132845.833000", "132845.835000", "132845.838000", "132925.814000", "132925.817000", "132925.819000", "132925.822000", "132925.825000", "132925.827000", "132925.830000", "132925.833000", "132925.835000", "132925.838000", "132925.841000", "132925.843000", "132925.846000", "132925.849000", "132925.851000", "132925.854000", "132925.857000", "132925.860000", "132925.862000", "132925.865000", "133005.812000", "133005.815000", "133005.818000", "133005.821000", "133005.823000", "133005.826000", "133005.829000", "133005.831000", "133005.834000", "133005.837000", "133005.839000", "133005.842000", "133005.845000", "133005.847000", "133005.850000", "133005.853000", "133005.856000", "133005.858000", "133005.861000", "133005.864000", "133045.813000", "133045.815000", "133045.818000", "133045.821000", "133045.824000", "133045.826000", "133045.829000", "133045.832000", "133045.834000", "133045.837000", "133045.840000", "133045.843000", "133045.845000", "133045.848000", "133045.851000", "133045.853000", "133045.856000", "133045.859000", "133045.861000", "133045.870000", "133125.814000", "133125.816000", "133125.819000", "133125.822000", "133125.825000", "133125.827000", "133125.830000", "133125.835000", "133125.838000", "133125.840000", "133125.843000", "133125.846000", "133125.848000", "133125.851000", "133125.854000", "133125.857000", "133125.859000", "133125.862000", "133125.865000", "133125.867000", "133205.813000", "133205.815000", "133205.818000", "133205.821000", "133205.824000", "133205.834000", "133205.837000", "133205.840000", "133205.843000", "133205.845000", "133205.848000", "133205.851000", "133205.853000", "133205.856000", "133205.859000", "133205.861000", "133205.864000", "133205.867000", "133205.869000", "133205.872000", "133211.377000", "133211.380000", "133211.383000"],
      "InstanceNumber": [1, 2, 3, 4, 5, 6, 7, 8, 9, 10, 11, 12, 13, 14, 15, 16, 17, 18, 19, 20, 21, 22, 23, 24, 25, 26, 27, 28, 29, 30, 31, 32, 33, 34, 35, 36, 37, 38, 39, 40, 41, 42, 43, 44, 45, 46, 47, 48, 49, 50, 51, 52, 53, 54, 55, 56, 57, 58, 59, 60, 61, 62, 63, 64, 65, 66, 67, 68, 69, 70, 71, 72, 73, 74, 75, 76, 77, 78, 79, 80, 81, 82, 83, 84, 85, 86, 87, 88, 89, 90, 91, 92, 93, 94, 95, 96, 97, 98, 99, 100, 101, 102, 103, 104, 105, 106, 107, 108, 109, 110, 111, 112, 113, 114, 115, 116, 117, 118, 119, 120, 121, 122, 123, 124, 125, 126, 127, 128, 129, 130, 131, 132, 133, 134, 135, 136, 137, 138, 139, 140, 141, 142, 143, 144, 145, 146, 147, 148, 149, 150, 151, 152, 153, 154, 155, 156, 157, 158, 159, 160, 161, 162, 163, 164, 165, 166, 167, 168, 169, 170, 171, 172, 173, 174, 175, 176, 177, 178, 179, 180, 181, 182, 183, 184, 185, 186, 187, 188, 189, 190, 191, 192, 193, 194, 195, 196, 197, 198, 199, 200, 201, 202, 203, 204, 205, 206, 207, 208, 209, 210, 211, 212, 213, 214, 215, 216, 217, 218, 219, 220, 221, 222, 223, 224, 225, 226, 227, 228, 229, 230, 231, 232, 233, 234, 235, 236, 237, 238, 239, 240, 241, 242, 243, 244, 245, 246, 247, 248, 249, 250, 251, 252, 253, 254, 255, 256, 257, 258, 259, 260, 261, 262, 263, 264, 265, 266, 267, 268, 269, 270, 271, 272, 273, 274, 275, 276, 277, 278, 279, 280, 281, 282, 283, 284, 285, 286, 287, 288, 289, 290, 291, 292, 293, 294, 295, 296, 297, 298, 299, 300, 301, 302, 303, 304, 305, 306, 307, 308, 309, 310, 311, 312, 313, 314, 315, 316, 317, 318, 319, 320, 321, 322, 323, 324, 325, 326, 327, 328, 329, 330, 331, 332, 333, 334, 335, 336, 337, 338, 339, 340, 341],
      "LargestImagePixelValue": [2449, 2256, 2416, 2774, 2499, 2429, 2048, 2497, 2188, 2193, 2449, 2642, 2273, 2092, 2286, 2223, 2243, 2171, 2259, 2238, 2203, 2025, 2128, 2158, 2094, 1956, 2166, 2168, 2137, 2201, 2120, 2432, 2381, 2241, 2194, 2613, 2403, 2307, 2201, 2523, 2186, 2271, 2081, 2196, 2077, 2533, 2111, 2624, 2207, 2640, 2255, 2157, 2406, 2002, 2094, 2122, 2205, 2146, 2003, 2084, 2112, 2186, 2183, 2056, 2276, 2091, 2162, 2123, 2339, 2255, 2202, 2323, 2321, 2315, 2407, 2176, 2155, 2191, 2080, 2754, 2104, 2004, 2081, 2023, 2090, 2458, 2130, 2111, 2488, 2186, 2050, 2051, 2038, 2012, 2050, 2061, 2061, 2200, 2372, 2132, 2469, 2261, 2143, 2048, 1921, 1971, 2015, 2073, 2158, 2169, 2115, 2009, 2001, 2161, 2005, 2020, 2139, 2393, 2210, 2546, 2186, 2023, 2344, 2040, 2058, 2067, 2095, 2393, 2219, 2148, 2159, 1923, 2134, 2400, 2003, 2043, 2231, 2041, 2096, 2275, 2304, 2382, 2573, 2071, 2272, 2283, 2301, 2128, 2345, 2117, 2240, 2055, 2094, 1984, 2289, 1997, 2091, 2135, 2054, 2075, 2285, 2023, 2064, 2183, 2095, 2099, 2309, 2117, 2190, 2217, 2161, 2058, 2104, 2290, 2047, 2222, 2291, 2198, 2039, 1939, 1977, 2118, 2211, 2339, 2179, 2121, 2008, 2194, 2282, 1939, 2076, 2306, 1995, 2292, 2414, 2153, 2226, 2448, 2140, 2237, 2167, 2420, 2332, 2269, 2063, 2194, 2395, 2335, 2251, 2487, 2017, 2111, 2172, 2588, 2087, 2084, 2215, 2052, 2026, 2227, 2058, 2021, 2537, 2140, 2287, 2373, 2078, 2171, 2040, 2225, 2146, 2040, 2217, 2100, 2262, 2396, 2015, 2111, 2229, 1917, 2234, 2196, 2249, 2448, 2159, 2352, 1991, 2099, 2218, 1970, 2049, 2330, 2007, 2228, 2100, 2245, 2349, 2027, 2217, 2096, 2199, 2291, 2345, 2095, 2184, 2165, 2456, 2031, 2031, 2610, 2249, 2153, 2135, 2189, 2169, 2121, 2026, 2286, 2200, 2203, 2225, 2130, 2189, 2199, 2073, 2200, 2249, 2269, 2178, 2284, 2213, 2233, 2143, 1974, 2578, 2091, 2158, 2419, 1912, 1955, 2088, 2077, 2023, 2105, 1954, 2174, 2375, 2210, 2250, 2164, 2037, 2170, 2104, 2144, 2027, 2081, 2262, 1987, 2485, 2164, 2468, 2292, 2163, 2401, 2138, 2502, 2047, 1929, 2091, 2516, 1947, 2168, 2332, 2208, 2121, 2358, 2419, 2317, 2313, 2311, 2399],
