{
  "AcquisitionMatrixPE": 70,
  "AcquisitionNumber": 1,
  "AcquisitionTime": "13:33:16.612500",
  "BandwidthPerPixelPhaseEncode": 51.948,
  "BaseResolution": 70,
  "BodyPartExamined": "HEAD",
  "CoilCombinationMethod": "Sum of Squares",
  "ConsistencyInfo": "N4_VE11C_LATEST_20160120",
  "ConversionSoftware": "dcm2niix",
  "ConversionSoftwareVersion": "v1.0.20220720",
  "DerivedVendorReportedEchoSpacing": 0.000550001,
  "DeviceSerialNumber": "66061",
  "DwellTime": 3.3e-06,
  "EchoTime": 0.022,
  "EchoTrainLength": 35,
  "EffectiveEchoSpacing": 0.000275,
  "FlipAngle": 90,
  "HeudiconvVersion": "1.1.1",
  "ImageOrientationPatientDICOM": [0.999905, 0.00312009, 0.0134203, -0.00122163, 0.990263, -0.139207],
  "ImageOrientationText": "Tra>Cor(-8.0)>Sag(0.8)",
  "ImageType": [
    "ORIGINAL",
    "PRIMARY",
    "M",
    "ND",
    "NORM",
    "MOSAIC"
],
  "ImagingFrequency": 123.254,
  "InPlanePhaseEncodingDirectionDICOM": "COL",
  "InstitutionAddress": "Street StreetNo,City/1c4204/,District,KR,ZIP",
  "InstitutionName": "SKKU",
  "InstitutionalDepartmentName": "Department",
  "MRAcquisitionType": "2D",
  "MagneticFieldStrength": 3,
  "Manufacturer": "Siemens",
  "ManufacturersModelName": "Prisma",
  "MatrixCoilMode": "GRAPPA",
  "Modality": "MR",
  "NonlinearGradientCorrection": false,
  "ParallelReductionFactorInPlane": 2,
  "PartialFourier": 1,
  "PatientPosition": "HFS",
  "PercentPhaseFOV": 100,
  "PercentSampling": 100,
  "PhaseEncodingDirection": "j-",
  "PhaseEncodingSteps": 70,
  "PhaseResolution": 1,
  "PixelBandwidth": 2165,
  "ProcedureStepDescription": "Head^PI:Others",
  "ProtocolName": "BOLD_ep2d_3x3x3_response2",
  "PulseSequenceDetails": "%SiemensSeq%\\ep2d_pace",
  "ReceiveCoilActiveElements": "HC1-7",
  "ReceiveCoilName": "HeadNeck_64",
  "ReconMatrixPE": 70,
  "RefLinesPE": 24,
  "RepetitionTime": 2,
  "SAR": 0.116265,
  "ScanOptions": "FS",
  "ScanningSequence": "EP",
  "SequenceName": "*epfid2d1_70",
  "SequenceVariant": "SK",
  "SeriesDescription": "BOLD_ep2d_3x3x3_response2",
  "SeriesNumber": 7,
  "ShimSetting": [5060, 3685, 4435, 347, -16, -53, 71, 86],
  "SliceThickness": 3,
  "SliceTiming": [0.99, 0, 1.0375, 0.0475, 1.0825, 0.0925, 1.13, 0.14, 1.1775, 0.1875, 1.225, 0.235, 1.2725, 0.2825, 1.32, 0.33, 1.3675, 0.3775, 1.4125, 0.4225, 1.46, 0.47, 1.5075, 0.5175, 1.555, 0.565, 1.6025, 0.6125, 1.65, 0.66, 1.6975, 0.7075, 1.7425, 0.7525, 1.79, 0.8, 1.8375, 0.8475, 1.885, 0.895, 1.9325, 0.9425],
  "SoftwareVersions": "syngo MR E11",
  "SpacingBetweenSlices": 3,
  "StationName": "AWP66061",
  "TaskName": "response",
  "TotalReadoutTime": 0.018975,
  "TxRefAmp": 216.218,
  "dcmmeta_affine": [
    [-2.9997153282165527, -0.0036648751702159643, 0.04117177054286003, 104.94757080078125],
    [-0.009360259398818016, 2.970787525177002, -0.4175323247909546, -95.12640380859375],
    [0.04026079550385475, 0.4176211655139923, 2.970517158508301, -54.74114227294922],
    [0.0, 0.0, 0.0, 1.0]
],
  "dcmmeta_reorient_transform": [
    [0.0, -1.0, 0.0, 69.0],
    [1.0, 0.0, 0.0, 0.0],
    [0.0, 0.0, -1.0, 41.0],
    [0.0, 0.0, 0.0, 1.0]
],
  "dcmmeta_shape": [70, 70, 42, 341],
  "dcmmeta_slice_dim": 2,
  "dcmmeta_version": 0.6,
  "global": {
    "const": {
      "AcquisitionMatrix": [70, 0, 0, 70],
      "AngioFlag": "N",
      "BitsAllocated": 16,
      "BitsStored": 12,
      "BodyPartExamined": "HEAD",
      "Columns": 490,
      "EchoNumbers": 1,
      "EchoTime": 22.0,
      "EchoTrainLength": 35,
      "FlipAngle": 90.0,
      "HighBit": 11,
      "ImageOrientationPatient": [0.99990507626805, 0.00312008633454, 0.01342026507417, -0.0012216250576, 0.9902625431807, -0.1392070515653],
      "ImagePositionPatient": [-735.5533143752, -718.57017167381, 175.11159037815],
      "ImageType": [
        "ORIGINAL",
        "PRIMARY",
        "M",
        "ND",
        "NORM",
        "MOSAIC"
],
      "ImagedNucleus": "1H",
      "ImagingFrequency": 123.254471,
      "InPlanePhaseEncodingDirection": "COL",
      "MRAcquisitionType": "2D",
      "MagneticFieldStrength": 3.0,
      "Manufacturer": "SIEMENS",
      "ManufacturerModelName": "Prisma",
      "Modality": "MR",
      "NumberOfAverages": 1.0,
      "NumberOfPhaseEncodingSteps": 70,
      "PercentPhaseFieldOfView": 100.0,
      "PercentSampling": 100.0,
      "PerformedProcedureStepStartTime": "124326.815000",
      "PhotometricInterpretation": "MONOCHROME2",
      "PixelBandwidth": 2165.0,
      "PixelRepresentation": 0,
      "PixelSpacing": [3.0, 3.0],
      "ProtocolName": "BOLD_ep2d_3x3x3_response2",
      "RepetitionTime": 2000.0,
      "Rows": 490,
      "SAR": 0.11626549221939,
      "SamplesPerPixel": 1,
      "ScanOptions": "FS",
      "ScanningSequence": "EP",
      "SequenceName": "*epfid2d1_70",
      "SequenceVariant": "SK",
      "SeriesDescription": "BOLD_ep2d_3x3x3_response2",
      "SeriesNumber": 7,
      "SeriesTime": "133415.754000",
      "SliceLocation": 83.476574464578,
      "SliceThickness": 3.0,
      "SmallestImagePixelValue": 0,
      "SoftwareVersions": "syngo MR E11",
      "SpacingBetweenSlices": 2.999999977729,
      "SpecificCharacterSet": "ISO_IR 100",
      "StudyID": "1",
      "StudyTime": "124326.749000",
      "TransmitCoilName": "Body",
      "VariableFlipAngleFlag": "N",
      "WindowCenterWidthExplanation": "Algo1",
      "dBdt": 0.0},
    "slices": {}
  },
  "time": {
    "samples": {
      "AcquisitionNumber": [1, 2, 3, 4, 5, 6, 7, 8, 9, 10, 11, 12, 13, 14, 15, 16, 17, 18, 19, 20, 21, 22, 23, 24, 25, 26, 27, 28, 29, 30, 31, 32, 33, 34, 35, 36, 37, 38, 39, 40, 41, 42, 43, 44, 45, 46, 47, 48, 49, 50, 51, 52, 53, 54, 55, 56, 57, 58, 59, 60, 61, 62, 63, 64, 65, 66, 67, 68, 69, 70, 71, 72, 73, 74, 75, 76, 77, 78, 79, 80, 81, 82, 83, 84, 85, 86, 87, 88, 89, 90, 91, 92, 93, 94, 95, 96, 97, 98, 99, 100, 101, 102, 103, 104, 105, 106, 107, 108, 109, 110, 111, 112, 113, 114, 115, 116, 117, 118, 119, 120, 121, 122, 123, 124, 125, 126, 127, 128, 129, 130, 131, 132, 133, 134, 135, 136, 137, 138, 139, 140, 141, 142, 143, 144, 145, 146, 147, 148, 149, 150, 151, 152, 153, 154, 155, 156, 157, 158, 159, 160, 161, 162, 163, 164, 165, 166, 167, 168, 169, 170, 171, 172, 173, 174, 175, 176, 177, 178, 179, 180, 181, 182, 183, 184, 185, 186, 187, 188, 189, 190, 191, 192, 193, 194, 195, 196, 197, 198, 199, 200, 201, 202, 203, 204, 205, 206, 207, 208, 209, 210, 211, 212, 213, 214, 215, 216, 217, 218, 219, 220, 221, 222, 223, 224, 225, 226, 227, 228, 229, 230, 231, 232, 233, 234, 235, 236, 237, 238, 239, 240, 241, 242, 243, 244, 245, 246, 247, 248, 249, 250, 251, 252, 253, 254, 255, 256, 257, 258, 259, 260, 261, 262, 263, 264, 265, 266, 267, 268, 269, 270, 271, 272, 273, 274, 275, 276, 277, 278, 279, 280, 281, 282, 283, 284, 285, 286, 287, 288, 289, 290, 291, 292, 293, 294, 295, 296, 297, 298, 299, 300, 301, 302, 303, 304, 305, 306, 307, 308, 309, 310, 311, 312, 313, 314, 315, 316, 317, 318, 319, 320, 321, 322, 323, 324, 325, 326, 327, 328, 329, 330, 331, 332, 333, 334, 335, 336, 337, 338, 339, 340, 341],
      "AcquisitionTime": ["133316.612500", "133318.612500", "133320.612500", "133322.612500", "133324.612500", "133326.612500", "133328.612500", "133330.612500", "133332.612500", "133334.612500", "133336.612500", "133338.612500", "133340.612500", "133342.612500", "133344.612500", "133346.612500", "133348.612500", "133350.612500", "133352.612500", "133354.612500", "133356.612500", "133358.612500", "133400.612500", "133402.612500", "133404.612500", "133406.612500", "133408.612500", "133410.612500", "133412.612500", "133414.612500", "133416.612500", "133418.612500", "133420.612500", "133422.612500", "133424.612500", "133426.612500", "133428.612500", "133430.612500", "133432.612500", "133434.612500", "133436.612500", "133438.612500", "133440.612500", "133442.612500", "133444.612500", "133446.612500", "133448.612500", "133450.612500", "133452.612500", "133454.612500", "133456.612500", "133458.612500", "133500.612500", "133502.612500", "133504.612500", "133506.612500", "133508.612500", "133510.612500", "133512.612500", "133514.612500", "133516.612500", "133518.612500", "133520.612500", "133522.612500", "133524.612500", "133526.612500", "133528.612500", "133530.612500", "133532.612500", "133534.612500", "133536.612500", "133538.612500", "133540.612500", "133542.612500", "133544.612500", "133546.612500", "133548.612500", "133550.612500", "133552.612500", "133554.612500", "133556.612500", "133558.612500", "133600.612500", "133602.612500", "133604.612500", "133606.612500", "133608.612500", "133610.612500", "133612.612500", "133614.612500", "133616.612500", "133618.612500", "133620.612500", "133622.612500", "133624.612500", "133626.612500", "133628.612500", "133630.612500", "133632.612500", "133634.612500", "133636.612500", "133638.612500", "133640.612500", "133642.612500", "133644.612500", "133646.612500", "133648.612500", "133650.612500", "133652.612500", "133654.612500", "133656.612500", "133658.612500", "133700.612500", "133702.612500", "133704.612500", "133706.612500", "133708.612500", "133710.612500", "133712.612500", "133714.612500", "133716.612500", "133718.612500", "133720.612500", "133722.612500", "133724.612500", "133726.612500", "133728.612500", "133730.612500", "133732.612500", "133734.612500", "133736.612500", "133738.612500", "133740.612500", "133742.612500", "133744.612500", "133746.612500", "133748.612500", "133750.612500", "133752.612500", "133754.612500", "133756.612500", "133758.612500", "133800.612500", "133802.612500", "133804.612500", "133806.612500", "133808.612500", "133810.612500", "133812.612500", "133814.612500", "133816.612500", "133818.612500", "133820.612500", "133822.612500", "133824.612500", "133826.612500", "133828.612500", "133830.612500", "133832.612500", "133834.612500", "133836.612500", "133838.612500", "133840.612500", "133842.612500", "133844.612500", "133846.612500", "133848.612500", "133850.612500", "133852.612500", "133854.612500", "133856.612500", "133858.612500", "133900.612500", "133902.612500", "133904.612500", "133906.612500", "133908.612500", "133910.612500", "133912.612500", "133914.612500", "133916.612500", "133918.612500", "133920.612500", "133922.612500", "133924.612500", "133926.612500", "133928.612500", "133930.612500", "133932.612500", "133934.612500", "133936.612500", "133938.612500", "133940.612500", "133942.612500", "133944.612500", "133946.612500", "133948.612500", "133950.612500", "133952.612500", "133954.612500", "133956.612500", "133958.612500", "134000.612500", "134002.612500", "134004.612500", "134006.612500", "134008.612500", "134010.612500", "134012.612500", "134014.612500", "134016.612500", "134018.612500", "134020.612500", "134022.612500", "134024.612500", "134026.612500", "134028.612500", "134030.612500", "134032.612500", "134034.612500", "134036.612500", "134038.612500", "134040.612500", "134042.612500", "134044.612500", "134046.612500", "134048.612500", "134050.612500", "134052.612500", "134054.612500", "134056.612500", "134058.612500", "134100.612500", "134102.612500", "134104.612500", "134106.612500", "134108.612500", "134110.612500", "134112.612500", "134114.612500", "134116.612500", "134118.612500", "134120.612500", "134122.612500", "134124.612500", "134126.612500", "134128.612500", "134130.612500", "134132.612500", "134134.612500", "134136.612500", "134138.612500", "134140.612500", "134142.612500", "134144.612500", "134146.612500", "134148.612500", "134150.612500", "134152.612500", "134154.612500", "134156.612500", "134158.612500", "134200.612500", "134202.612500", "134204.612500", "134206.612500", "134208.612500", "134210.612500", "134212.612500", "134214.612500", "134216.612500", "134218.612500", "134220.612500", "134222.612500", "134224.612500", "134226.612500", "134228.612500", "134230.612500", "134232.612500", "134234.612500", "134236.612500", "134238.612500", "134240.612500", "134242.612500", "134244.612500", "134246.612500", "134248.612500", "134250.612500", "134252.612500", "134254.612500", "134256.612500", "134258.612500", "134300.612500", "134302.612500", "134304.612500", "134306.612500", "134308.612500", "134310.612500", "134312.612500", "134314.612500", "134316.612500", "134318.612500", "134320.612500", "134322.612500", "134324.612500", "134326.612500", "134328.612500", "134330.612500", "134332.612500", "134334.612500", "134336.612500", "134338.612500", "134340.612500", "134342.612500", "134344.612500", "134346.612500", "134348.612500", "134350.612500", "134352.612500", "134354.612500", "134356.612500", "134358.612500", "134400.612500", "134402.612500", "134404.612500", "134406.612500", "134408.612500", "134410.612500", "134412.612500", "134414.612500", "134416.612500", "134418.612500", "134420.612500", "134422.612500", "134424.612500", "134426.612500", "134428.612500", "134430.612500", "134432.612500", "134434.612500", "134436.612500"],
      "ContentTime": ["133415.757000", "133415.761000", "133415.764000", "133415.766000", "133415.769000", "133415.772000", "133415.787000", "133415.789000", "133415.792000", "133415.795000", "133415.797000", "133415.800000", "133415.802000", "133415.805000", "133415.808000", "133415.816000", "133415.819000", "133415.822000", "133415.825000", "133415.827000", "133415.830000", "133415.833000", "133415.839000", "133415.842000", "133415.845000", "133415.847000", "133415.850000", "133415.853000", "133415.855000", "133455.753000", "133455.756000", "133455.759000", "133455.762000", "133455.764000", "133455.767000", "133455.781000", "133455.784000", "133455.786000", "133455.789000", "133455.791000", "133455.794000", "133455.797000", "133455.799000", "133455.802000", "133455.805000", "133455.807000", "133455.810000", "133455.813000", "133455.815000", "133535.752000", "133535.755000", "133535.758000", "133535.761000", "133535.764000", "133535.766000", "133535.769000", "133535.772000", "133535.774000", "133535.777000", "133535.779000", "133535.782000", "133535.785000", "133535.788000", "133535.790000", "133535.793000", "133535.796000", "133535.798000", "133535.801000", "133535.804000", "133615.752000", "133615.756000", "133615.758000", "133615.761000", "133615.763000", "133615.766000", "133615.769000", "133615.772000", "133615.774000", "133615.777000", "133615.780000", "133615.782000", "133615.785000", "133615.788000", "133615.790000", "133615.793000", "133615.796000", "133615.798000", "133615.801000", "133615.804000", "133655.754000", "133655.757000", "133655.759000", "133655.762000", "133655.765000", "133655.767000", "133655.770000", "133655.773000", "133655.775000", "133655.778000", "133655.781000", "133655.784000", "133655.786000", "133655.789000", "133655.791000", "133655.794000", "133655.797000", "133655.799000", "133655.802000", "133655.805000", "133735.753000", "133735.765000", "133735.767000", "133735.770000", "133735.773000", "133735.775000", "133735.778000", "133735.781000", "133735.783000", "133735.786000", "133735.789000", "133735.792000", "133735.794000", "133735.797000", "133735.800000", "133735.802000", "133735.805000", "133735.808000", "133735.810000", "133735.813000", "133815.752000", "133815.755000", "133815.758000", "133815.761000", "133815.764000", "133815.766000", "133815.769000", "133815.772000", "133815.774000", "133815.777000", "133815.780000", "133815.782000", "133815.785000", "133815.788000", "133815.790000", "133815.793000", "133815.795000", "133815.798000", "133815.801000", "133815.803000", "133855.753000", "133855.756000", "133855.758000", "133855.761000", "133855.764000", "133855.766000", "133855.769000", "133855.772000", "133855.774000", "133855.777000", "133855.780000", "133855.782000", "133855.785000", "133855.788000", "133855.790000", "133855.793000", "133855.796000", "133855.798000", "133855.801000", "133855.804000", "133935.754000", "133935.770000", "133935.773000", "133935.776000", "133935.778000", "133935.781000", "133935.784000", "133935.786000", "133935.789000", "133935.792000", "133935.795000", "133935.797000", "133935.800000", "133935.802000", "133935.805000", "133935.817000", "133935.819000", "133935.822000", "133935.825000", "133935.827000", "134015.752000", "134015.755000", "134015.758000", "134015.761000", "134015.763000", "134015.766000", "134015.769000", "134015.771000", "134015.774000", "134015.777000", "134015.779000", "134015.782000", "134015.785000", "134015.787000", "134015.790000", "134015.793000", "134015.796000", "134015.798000", "134015.801000", "134015.803000", "134055.752000", "134055.755000", "134055.758000", "134055.761000", "134055.764000", "134055.766000", "134055.769000", "134055.771000", "134055.774000", "134055.777000", "134055.780000", "134055.782000", "134055.785000", "134055.788000", "134055.790000", "134055.793000", "134055.796000", "134055.798000", "134055.801000", "134055.804000", "134135.753000", "134135.756000", "134135.759000", "134135.762000", "134135.764000", "134135.767000", "134135.770000", "134135.772000", "134135.775000", "134135.778000", "134135.781000", "134135.783000", "134135.786000", "134135.789000", "134135.791000", "134135.794000", "134135.797000", "134135.799000", "134135.802000", "134135.804000", "134215.753000", "134215.756000", "134215.759000", "134215.762000", "134215.766000", "134215.769000", "134215.772000", "134215.775000", "134215.778000", "134215.781000", "134215.784000", "134215.787000", "134215.791000", "134215.794000", "134215.797000", "134215.800000", "134215.803000", "134215.806000", "134215.809000", "134215.812000", "134255.752000", "134255.755000", "134255.758000", "134255.761000", "134255.764000", "134255.766000", "134255.769000", "134255.771000", "134255.774000", "134255.777000", "134255.779000", "134255.782000", "134255.785000", "134255.787000", "134255.790000", "134255.793000", "134255.796000", "134255.798000", "134255.801000", "134255.803000", "134335.753000", "134335.755000", "134335.758000", "134335.761000", "134335.764000", "134335.766000", "134335.769000", "134335.772000", "134335.774000", "134335.777000", "134335.780000", "134335.783000", "134335.785000", "134335.788000", "134335.790000", "134335.793000", "134335.796000", "134335.799000", "134335.801000", "134335.804000", "134415.754000", "134415.756000", "134415.759000", "134415.762000", "134415.765000", "134415.767000", "134415.770000", "134415.773000", "134415.775000", "134415.778000", "134415.781000", "134415.783000", "134415.786000", "134415.789000", "134415.791000", "134415.794000", "134415.797000", "134415.800000", "134415.802000", "134415.805000", "134438.113000", "134438.115000", "134438.118000", "134438.121000", "134438.124000", "134438.126000", "134438.129000", "134438.132000", "134438.134000", "134438.137000", "134438.140000", "134438.142000"],
      "InstanceCreationTime": ["133415.757000", "133415.761000", "133415.764000", "133415.766000", "133415.769000", "133415.772000", "133415.787000", "133415.789000", "133415.792000", "133415.795000", "133415.797000", "133415.800000", "133415.802000", "133415.805000", "133415.808000", "133415.816000", "133415.819000", "133415.822000", "133415.825000", "133415.827000", "133415.830000", "133415.833000", "133415.839000", "133415.842000", "133415.845000", "133415.847000", "133415.850000", "133415.853000", "133415.855000", "133455.753000", "133455.756000", "133455.759000", "133455.762000", "133455.764000", "133455.767000", "133455.781000", "133455.784000", "133455.786000", "133455.789000", "133455.791000", "133455.794000", "133455.797000", "133455.799000", "133455.802000", "133455.805000", "133455.807000", "133455.810000", "133455.813000", "133455.815000", "133535.752000", "133535.755000", "133535.758000", "133535.761000", "133535.764000", "133535.766000", "133535.769000", "133535.772000", "133535.774000", "133535.777000", "133535.779000", "133535.782000", "133535.785000", "133535.788000", "133535.790000", "133535.793000", "133535.796000", "133535.798000", "133535.801000", "133535.804000", "133615.752000", "133615.756000", "133615.758000", "133615.761000", "133615.763000", "133615.766000", "133615.769000", "133615.772000", "133615.774000", "133615.777000", "133615.780000", "133615.782000", "133615.785000", "133615.788000", "133615.790000", "133615.793000", "133615.796000", "133615.798000", "133615.801000", "133615.804000", "133655.754000", "133655.757000", "133655.759000", "133655.762000", "133655.765000", "133655.767000", "133655.770000", "133655.773000", "133655.775000", "133655.778000", "133655.781000", "133655.784000", "133655.786000", "133655.789000", "133655.791000", "133655.794000", "133655.797000", "133655.799000", "133655.802000", "133655.805000", "133735.753000", "133735.765000", "133735.767000", "133735.770000", "133735.773000", "133735.775000", "133735.778000", "133735.781000", "133735.783000", "133735.786000", "133735.789000", "133735.792000", "133735.794000", "133735.797000", "133735.800000", "133735.802000", "133735.805000", "133735.808000", "133735.810000", "133735.813000", "133815.752000", "133815.755000", "133815.758000", "133815.761000", "133815.764000", "133815.766000", "133815.769000", "133815.772000", "133815.774000", "133815.777000", "133815.780000", "133815.782000", "133815.785000", "133815.788000", "133815.790000", "133815.793000", "133815.795000", "133815.798000", "133815.801000", "133815.803000", "133855.753000", "133855.756000", "133855.758000", "133855.761000", "133855.764000", "133855.766000", "133855.769000", "133855.772000", "133855.774000", "133855.777000", "133855.780000", "133855.782000", "133855.785000", "133855.788000", "133855.790000", "133855.793000", "133855.796000", "133855.798000", "133855.801000", "133855.804000", "133935.754000", "133935.770000", "133935.773000", "133935.776000", "133935.778000", "133935.781000", "133935.784000", "133935.786000", "133935.789000", "133935.792000", "133935.795000", "133935.797000", "133935.800000", "133935.802000", "133935.805000", "133935.817000", "133935.819000", "133935.822000", "133935.825000", "133935.827000", "134015.752000", "134015.755000", "134015.758000", "134015.761000", "134015.763000", "134015.766000", "134015.769000", "134015.771000", "134015.774000", "134015.777000", "134015.779000", "134015.782000", "134015.785000", "134015.787000", "134015.790000", "134015.793000", "134015.796000", "134015.798000", "134015.801000", "134015.803000", "134055.752000", "134055.755000", "134055.758000", "134055.761000", "134055.764000", "134055.766000", "134055.769000", "134055.771000", "134055.774000", "134055.777000", "134055.780000", "134055.782000", "134055.785000", "134055.788000", "134055.790000", "134055.793000", "134055.796000", "134055.798000", "134055.801000", "134055.804000", "134135.753000", "134135.756000", "134135.759000", "134135.762000", "134135.764000", "134135.767000", "134135.770000", "134135.772000", "134135.775000", "134135.778000", "134135.781000", "134135.783000", "134135.786000", "134135.789000", "134135.791000", "134135.794000", "134135.797000", "134135.799000", "134135.802000", "134135.804000", "134215.753000", "134215.756000", "134215.759000", "134215.762000", "134215.766000", "134215.769000", "134215.772000", "134215.775000", "134215.778000", "134215.781000", "134215.784000", "134215.787000", "134215.791000", "134215.794000", "134215.797000", "134215.800000", "134215.803000", "134215.806000", "134215.809000", "134215.812000", "134255.752000", "134255.755000", "134255.758000", "134255.761000", "134255.764000", "134255.766000", "134255.769000", "134255.771000", "134255.774000", "134255.777000", "134255.779000", "134255.782000", "134255.785000", "134255.787000", "134255.790000", "134255.793000", "134255.796000", "134255.798000", "134255.801000", "134255.803000", "134335.753000", "134335.755000", "134335.758000", "134335.761000", "134335.764000", "134335.766000", "134335.769000", "134335.772000", "134335.774000", "134335.777000", "134335.780000", "134335.783000", "134335.785000", "134335.788000", "134335.790000", "134335.793000", "134335.796000", "134335.799000", "134335.801000", "134335.804000", "134415.754000", "134415.756000", "134415.759000", "134415.762000", "134415.765000", "134415.767000", "134415.770000", "134415.773000", "134415.775000", "134415.778000", "134415.781000", "134415.783000", "134415.786000", "134415.789000", "134415.791000", "134415.794000", "134415.797000", "134415.800000", "134415.802000", "134415.805000", "134438.113000", "134438.115000", "134438.118000", "134438.121000", "134438.124000", "134438.126000", "134438.129000", "134438.132000", "134438.134000", "134438.137000", "134438.140000", "134438.142000"],
      "InstanceNumber": [1, 2, 3, 4, 5, 6, 7, 8, 9, 10, 11, 12, 13, 14, 15, 16, 17, 18, 19, 20, 21, 22, 23, 24, 25, 26, 27, 28, 29, 30, 31, 32, 33, 34, 35, 36, 37, 38, 39, 40, 41, 42, 43, 44, 45, 46, 47, 48, 49, 50, 51, 52, 53, 54, 55, 56, 57, 58, 59, 60, 61, 62, 63, 64, 65, 66, 67, 68, 69, 70, 71, 72, 73, 74, 75, 76, 77, 78, 79, 80, 81, 82, 83, 84, 85, 86, 87, 88, 89, 90, 91, 92, 93, 94, 95, 96, 97, 98, 99, 100, 101, 102, 103, 104, 105, 106, 107, 108, 109, 110, 111, 112, 113, 114, 115, 116, 117, 118, 119, 120, 121, 122, 123, 124, 125, 126, 127, 128, 129, 130, 131, 132, 133, 134, 135, 136, 137, 138, 139, 140, 141, 142, 143, 144, 145, 146, 147, 148, 149, 150, 151, 152, 153, 154, 155, 156, 157, 158, 159, 160, 161, 162, 163, 164, 165, 166, 167, 168, 169, 170, 171, 172, 173, 174, 175, 176, 177, 178, 179, 180, 181, 182, 183, 184, 185, 186, 187, 188, 189, 190, 191, 192, 193, 194, 195, 196, 197, 198, 199, 200, 201, 202, 203, 204, 205, 206, 207, 208, 209, 210, 211, 212, 213, 214, 215, 216, 217, 218, 219, 220, 221, 222, 223, 224, 225, 226, 227, 228, 229, 230, 231, 232, 233, 234, 235, 236, 237, 238, 239, 240, 241, 242, 243, 244, 245, 246, 247, 248, 249, 250, 251, 252, 253, 254, 255, 256, 257, 258, 259, 260, 261, 262, 263, 264, 265, 266, 267, 268, 269, 270, 271, 272, 273, 274, 275, 276, 277, 278, 279, 280, 281, 282, 283, 284, 285, 286, 287, 288, 289, 290, 291, 292, 293, 294, 295, 296, 297, 298, 299, 300, 301, 302, 303, 304, 305, 306, 307, 308, 309, 310, 311, 312, 313, 314, 315, 316, 317, 318, 319, 320, 321, 322, 323, 324, 325, 326, 327, 328, 329, 330, 331, 332, 333, 334, 335, 336, 337, 338, 339, 340, 341],
      "LargestImagePixelValue": [1977, 1998, 1977, 2233, 2157, 2328, 2150, 2209, 2028, 2101, 2084, 2025, 2174, 2021, 2139, 2058, 2162, 2207, 2165, 2183, 2010, 2243, 2069, 2066, 2291, 2181, 2288, 2021, 2074, 2255, 2007, 2090, 2238, 2173, 2260, 2123, 2285, 2169, 2439, 2201, 2461, 2252, 2276, 2216, 2329, 2281, 2608, 2545, 2161, 2382, 2174, 2265, 2138, 2047, 2389, 2620, 2480, 2288, 2232, 2301, 2278, 2727, 2514, 2477, 2250, 2503, 2192, 2079, 2121, 2083, 2032, 2058, 2196, 2120, 2201, 2341, 2190, 2284, 1993, 2108, 2135, 1975, 2088, 2062, 2364, 2261, 2096, 2297, 2037, 2325, 2108, 2493, 2241, 2120, 2255, 2283, 2097, 2182, 2202, 2072, 2062, 2037, 2156, 2151, 2146, 2163, 2437, 2174, 2056, 2263, 2156, 2672, 2022, 1973, 2076, 2143, 2140, 2127, 2095, 2154, 2418, 2083, 2016, 2107, 1984, 2041, 2088, 2050, 2206, 2012, 2137, 2126, 2032, 2176, 2349, 2037, 2033, 2039, 1981, 2066, 2086, 2077, 2231, 2028, 2009, 2214, 2014, 1947, 2009, 2024, 1998, 2116, 2253, 2273, 2024, 1955, 2014, 1961, 1999, 2118, 2136, 2085, 2110, 2069, 2197, 2285, 1942, 2012, 2254, 2095, 2265, 2213, 2022, 2051, 2096, 2037, 2216, 1998, 2006, 2229, 1989, 2081, 1992, 2201, 2213, 2083, 2066, 2007, 2060, 2057, 1962, 2171, 2238, 2674, 2178, 2157, 2019, 1990, 2163, 2002, 1997, 2253, 2175, 2126, 2374, 2154, 2262, 2501, 2216, 2606, 2183, 1943, 2549, 2130, 2406, 2116, 2213, 2370, 2459, 2234, 2629, 2477, 2578, 2361, 2344, 2704, 2307, 2383, 2779, 2279, 2625, 2245, 2093, 2169, 2510, 2373, 2363, 2334, 2263, 2482, 2041, 1929, 2227, 2381, 2703, 2449, 3012, 2450, 2196, 2584, 2188, 2104, 2397, 2325, 2134, 2152, 2392, 2181, 2167, 2531, 2451, 2499, 2428, 2420, 2918, 2317, 2056, 2396, 2154, 2263, 2231, 2475, 2289, 2546, 2248, 2454, 2410, 1938, 2599, 2295, 2077, 2194, 2522, 2134, 2162, 2269, 2228, 2259, 2325, 2194, 2682, 2197, 2237, 1953, 2217, 2030, 2075, 2030, 2115, 2223, 2289, 2089, 2238, 2194, 2293, 2434, 2089, 2077, 2202, 2074, 2086, 2183, 2109, 2199, 2029, 2415, 2571, 2289, 2667, 2240, 2712, 2175, 2273, 2192, 2274, 2250, 2344, 2006, 2196, 2157, 2476, 2553, 2411, 2158, 2651, 2432, 2399, 2166, 2051, 2111, 1956],
