{
  "AcquisitionMatrixPE": 70,
  "AcquisitionNumber": 1,
  "AcquisitionTime": "13:53:24.405000",
  "BandwidthPerPixelPhaseEncode": 51.948,
  "BaseResolution": 70,
  "BodyPartExamined": "HEAD",
  "CoilCombinationMethod": "Sum of Squares",
  "ConsistencyInfo": "N4_VE11C_LATEST_20160120",
  "ConversionSoftware": "dcm2niix",
  "ConversionSoftwareVersion": "v1.0.20220720",
  "DerivedVendorReportedEchoSpacing": 0.000550001,
  "DeviceSerialNumber": "66061",
  "DwellTime": 3.3e-06,
  "EchoTime": 0.022,
  "EchoTrainLength": 35,
  "EffectiveEchoSpacing": 0.000275,
  "FlipAngle": 90,
  "HeudiconvVersion": "1.1.1",
  "ImageOrientationPatientDICOM": [0.99935, 0.00783077, 0.035178, -0.00122092, 0.982904, -0.184114],
  "ImageOrientationText": "Tra>Cor(-10.6)>Sag(2.1)",
  "ImageType": [
    "ORIGINAL",
    "PRIMARY",
    "M",
    "ND",
    "NORM",
    "MOSAIC"
],
  "ImagingFrequency": 123.255,
  "InPlanePhaseEncodingDirectionDICOM": "COL",
  "InstitutionAddress": "Street StreetNo,City/1c4204/,District,KR,ZIP",
  "InstitutionName": "SKKU",
  "InstitutionalDepartmentName": "Department",
  "MRAcquisitionType": "2D",
  "MagneticFieldStrength": 3,
  "Manufacturer": "Siemens",
  "ManufacturersModelName": "Prisma",
  "MatrixCoilMode": "GRAPPA",
  "Modality": "MR",
  "NonlinearGradientCorrection": false,
  "ParallelReductionFactorInPlane": 2,
  "PartialFourier": 1,
  "PatientPosition": "HFS",
  "PercentPhaseFOV": 100,
  "PercentSampling": 100,
  "PhaseEncodingDirection": "j-",
  "PhaseEncodingSteps": 70,
  "PhaseResolution": 1,
  "PixelBandwidth": 2165,
  "ProcedureStepDescription": "Head^PI:Others",
  "ProtocolName": "BOLD_ep2d_3x3x3_feature3",
  "PulseSequenceDetails": "%SiemensSeq%\\ep2d_pace",
  "ReceiveCoilActiveElements": "HC1-7",
  "ReceiveCoilName": "HeadNeck_64",
  "ReconMatrixPE": 70,
  "RefLinesPE": 24,
  "RepetitionTime": 2,
  "SAR": 0.119715,
  "ScanOptions": "FS",
  "ScanningSequence": "EP",
  "SequenceName": "*epfid2d1_70",
  "SequenceVariant": "SK",
  "SeriesDescription": "BOLD_ep2d_3x3x3_feature3",
  "SeriesNumber": 10,
  "ShimSetting": [5064, 3689, 4441, 446, -36, -66, 97, 33],
  "SliceThickness": 3,
  "SliceTiming": [0.99, 0, 1.0375, 0.0475, 1.085, 0.095, 1.1325, 0.1425, 1.18, 0.19, 1.2275, 0.2375, 1.275, 0.285, 1.32, 0.33, 1.3675, 0.3775, 1.415, 0.425, 1.4625, 0.4725, 1.51, 0.52, 1.5575, 0.5675, 1.6025, 0.615, 1.65, 0.66, 1.6975, 0.7075, 1.745, 0.755, 1.7925, 0.8025, 1.84, 0.85, 1.8875, 0.8975, 1.9325, 0.945],
  "SoftwareVersions": "syngo MR E11",
  "SpacingBetweenSlices": 3,
  "StationName": "AWP66061",
  "TaskName": "feature",
  "TotalReadoutTime": 0.018975,
  "TxRefAmp": 219.323,
  "dcmmeta_affine": [
    [-2.998051166534424, -0.003662755945697427, 0.10805519670248032, 100.98734283447266],
    [-0.023492299020290375, 2.9487123489379883, -0.5518540740013123, -81.4886703491211],
    [0.105534128844738, 0.5523416996002197, 2.9468257427215576, -69.55382537841797],
    [0.0, 0.0, 0.0, 1.0]
],
  "dcmmeta_reorient_transform": [
    [0.0, -1.0, 0.0, 69.0],
    [1.0, 0.0, 0.0, 0.0],
    [0.0, 0.0, -1.0, 41.0],
    [0.0, 0.0, 0.0, 1.0]
],
  "dcmmeta_shape": [70, 70, 42, 221],
  "dcmmeta_slice_dim": 2,
  "dcmmeta_version": 0.6,
  "global": {
    "const": {
      "AcquisitionMatrix": [70, 0, 0, 70],
      "AngioFlag": "N",
      "BitsAllocated": 16,
      "BitsStored": 12,
      "BodyPartExamined": "HEAD",
      "Columns": 490,
      "EchoNumbers": 1,
      "EchoTime": 22.0,
      "EchoTrainLength": 35,
      "FlipAngle": 90.0,
      "HighBit": 11,
      "ImageOrientationPatient": [0.99935038116473, 0.00783076625464, 0.0351780438027, -0.0012209186642, 0.98290415497466, -0.1841139090106],
      "ImagePositionPatient": [-733.98643961109, -723.50947538448, 183.20720266364],
      "ImageType": [
        "ORIGINAL",
        "PRIMARY",
        "M",
        "ND",
        "NORM",
        "MOSAIC"
],
      "ImagedNucleus": "1H",
      "ImagingFrequency": 123.25465,
      "InPlanePhaseEncodingDirection": "COL",
      "MRAcquisitionType": "2D",
      "MagneticFieldStrength": 3.0,
      "Manufacturer": "SIEMENS",
      "ManufacturerModelName": "Prisma",
      "Modality": "MR",
      "NumberOfAverages": 1.0,
      "NumberOfPhaseEncodingSteps": 70,
      "PercentPhaseFieldOfView": 100.0,
      "PercentSampling": 100.0,
      "PerformedProcedureStepStartTime": "124814.018000",
      "PhotometricInterpretation": "MONOCHROME2",
      "PixelBandwidth": 2165.0,
      "PixelRepresentation": 0,
      "PixelSpacing": [3.0, 3.0],
      "ProtocolName": "BOLD_ep2d_3x3x3_feature3",
      "RepetitionTime": 2000.0,
      "Rows": 490,
      "SAR": 0.11971482215532,
      "SamplesPerPixel": 1,
      "ScanOptions": "FS",
      "ScanningSequence": "EP",
      "SequenceName": "*epfid2d1_70",
      "SequenceVariant": "SK",
      "SeriesDescription": "BOLD_ep2d_3x3x3_feature3",
      "SeriesNumber": 10,
      "SeriesTime": "135405.914000",
      "SliceLocation": 73.306359329166,
      "SliceThickness": 3.0,
      "SmallestImagePixelValue": 0,
      "SoftwareVersions": "syngo MR E11",
      "SpacingBetweenSlices": 3.0000000189977,
      "SpecificCharacterSet": "ISO_IR 100",
      "StudyID": "1",
      "StudyTime": "124813.931000",
      "TransmitCoilName": "Body",
      "VariableFlipAngleFlag": "N",
      "WindowCenterWidthExplanation": "Algo1",
      "dBdt": 0.0},
    "slices": {}
  },
  "time": {
    "samples": {
      "AcquisitionNumber": [1, 2, 3, 4, 5, 6, 7, 8, 9, 10, 11, 12, 13, 14, 15, 16, 17, 18, 19, 20, 21, 22, 23, 24, 25, 26, 27, 28, 29, 30, 31, 32, 33, 34, 35, 36, 37, 38, 39, 40, 41, 42, 43, 44, 45, 46, 47, 48, 49, 50, 51, 52, 53, 54, 55, 56, 57, 58, 59, 60, 61, 62, 63, 64, 65, 66, 67, 68, 69, 70, 71, 72, 73, 74, 75, 76, 77, 78, 79, 80, 81, 82, 83, 84, 85, 86, 87, 88, 89, 90, 91, 92, 93, 94, 95, 96, 97, 98, 99, 100, 101, 102, 103, 104, 105, 106, 107, 108, 109, 110, 111, 112, 113, 114, 115, 116, 117, 118, 119, 120, 121, 122, 123, 124, 125, 126, 127, 128, 129, 130, 131, 132, 133, 134, 135, 136, 137, 138, 139, 140, 141, 142, 143, 144, 145, 146, 147, 148, 149, 150, 151, 152, 153, 154, 155, 156, 157, 158, 159, 160, 161, 162, 163, 164, 165, 166, 167, 168, 169, 170, 171, 172, 173, 174, 175, 176, 177, 178, 179, 180, 181, 182, 183, 184, 185, 186, 187, 188, 189, 190, 191, 192, 193, 194, 195, 196, 197, 198, 199, 200, 201, 202, 203, 204, 205, 206, 207, 208, 209, 210, 211, 212, 213, 214, 215, 216, 217, 218, 219, 220, 221],
      "AcquisitionTime": ["135324.405000", "135326.405000", "135328.405000", "135330.405000", "135332.405000", "135334.405000", "135336.405000", "135338.405000", "135340.405000", "135342.405000", "135344.405000", "135346.405000", "135348.405000", "135350.405000", "135352.405000", "135354.405000", "135356.405000", "135358.405000", "135400.405000", "135402.405000", "135404.405000", "135406.405000", "135408.405000", "135410.405000", "135412.405000", "135414.405000", "135416.405000", "135418.405000", "135420.405000", "135422.405000", "135424.405000", "135426.405000", "135428.405000", "135430.405000", "135432.405000", "135434.405000", "135436.405000", "135438.405000", "135440.405000", "135442.405000", "135444.405000", "135446.405000", "135448.405000", "135450.405000", "135452.405000", "135454.405000", "135456.405000", "135458.405000", "135500.405000", "135502.405000", "135504.405000", "135506.405000", "135508.405000", "135510.405000", "135512.405000", "135514.405000", "135516.405000", "135518.405000", "135520.405000", "135522.405000", "135524.405000", "135526.405000", "135528.405000", "135530.405000", "135532.405000", "135534.405000", "135536.405000", "135538.405000", "135540.405000", "135542.405000", "135544.405000", "135546.405000", "135548.405000", "135550.405000", "135552.405000", "135554.405000", "135556.405000", "135558.405000", "135600.405000", "135602.405000", "135604.405000", "135606.405000", "135608.405000", "135610.405000", "135612.405000", "135614.405000", "135616.405000", "135618.405000", "135620.405000", "135622.405000", "135624.405000", "135626.405000", "135628.405000", "135630.405000", "135632.405000", "135634.405000", "135636.405000", "135638.405000", "135640.405000", "135642.405000", "135644.405000", "135646.405000", "135648.405000", "135650.405000", "135652.405000", "135654.405000", "135656.405000", "135658.405000", "135700.405000", "135702.405000", "135704.405000", "135706.405000", "135708.405000", "135710.405000", "135712.405000", "135714.405000", "135716.405000", "135718.405000", "135720.405000", "135722.405000", "135724.405000", "135726.405000", "135728.405000", "135730.405000", "135732.405000", "135734.405000", "135736.405000", "135738.405000", "135740.405000", "135742.405000", "135744.405000", "135746.405000", "135748.405000", "135750.405000", "135752.405000", "135754.405000", "135756.405000", "135758.405000", "135800.405000", "135802.405000", "135804.405000", "135806.405000", "135808.405000", "135810.405000", "135812.405000", "135814.405000", "135816.405000", "135818.405000", "135820.405000", "135822.405000", "135824.405000", "135826.405000", "135828.405000", "135830.405000", "135832.405000", "135834.405000", "135836.405000", "135838.405000", "135840.405000", "135842.405000", "135844.405000", "135846.405000", "135848.405000", "135850.405000", "135852.405000", "135854.405000", "135856.405000", "135858.405000", "135900.405000", "135902.405000", "135904.405000", "135906.405000", "135908.405000", "135910.405000", "135912.405000", "135914.405000", "135916.405000", "135918.405000", "135920.405000", "135922.405000", "135924.405000", "135926.405000", "135928.405000", "135930.405000", "135932.405000", "135934.405000", "135936.405000", "135938.405000", "135940.405000", "135942.405000", "135944.405000", "135946.405000", "135948.405000", "135950.405000", "135952.405000", "135954.405000", "135956.405000", "135958.405000", "140000.405000", "140002.405000", "140004.405000", "140006.405000", "140008.405000", "140010.405000", "140012.405000", "140014.405000", "140016.405000", "140018.405000", "140020.405000", "140022.405000", "140024.405000", "140026.405000", "140028.405000", "140030.405000", "140032.405000", "140034.405000", "140036.405000", "140038.405000", "140040.405000", "140042.405000", "140044.405000"],
      "ContentTime": ["135405.917000", "135405.921000", "135405.923000", "135405.926000", "135405.929000", "135405.931000", "135405.934000", "135405.936000", "135405.939000", "135405.942000", "135405.944000", "135405.958000", "135405.966000", "135405.969000", "135405.976000", "135405.979000", "135405.986000", "135405.989000", "135405.992000", "135405.994000", "135445.913000", "135445.915000", "135445.918000", "135445.921000", "135445.923000", "135445.926000", "135445.928000", "135445.931000", "135445.934000", "135445.936000", "135445.939000", "135445.941000", "135445.944000", "135445.947000", "135445.949000", "135445.952000", "135445.954000", "135445.957000", "135445.960000", "135445.962000", "135525.911000", "135525.914000", "135525.917000", "135525.920000", "135525.922000", "135525.925000", "135525.927000", "135525.938000", "135525.940000", "135525.943000", "135525.946000", "135525.954000", "135525.957000", "135525.959000", "135525.962000", "135525.965000", "135525.967000", "135525.970000", "135525.973000", "135525.975000", "135605.913000", "135605.916000", "135605.918000", "135605.921000", "135605.923000", "135605.926000", "135605.929000", "135605.931000", "135605.934000", "135605.937000", "135605.939000", "135605.942000", "135605.945000", "135605.947000", "135605.950000", "135605.952000", "135605.955000", "135605.958000", "135605.960000", "135605.963000", "135645.913000", "135645.915000", "135645.918000", "135645.921000", "135645.923000", "135645.926000", "135645.929000", "135645.931000", "135645.934000", "135645.936000", "135645.939000", "135645.942000", "135645.944000", "135645.947000", "135645.949000", "135645.952000", "135645.955000", "135645.957000", "135645.960000", "135645.963000", "135725.911000", "135725.914000", "135725.917000", "135725.920000", "135725.922000", "135725.925000", "135725.928000", "135725.930000", "135725.933000", "135725.944000", "135725.946000", "135725.949000", "135725.952000", "135725.954000", "135725.957000", "135725.959000", "135725.962000", "135725.965000", "135725.967000", "135725.970000", "135805.912000", "135805.914000", "135805.917000", "135805.920000", "135805.922000", "135805.925000", "135805.928000", "135805.930000", "135805.933000", "135805.936000", "135805.938000", "135805.941000", "135805.944000", "135805.946000", "135805.949000", "135805.951000", "135805.954000", "135805.957000", "135805.959000", "135805.962000", "135845.913000", "135845.915000", "135845.918000", "135845.921000", "135845.923000", "135845.926000", "135845.929000", "135845.931000", "135845.934000", "135845.936000", "135845.939000", "135845.942000", "135845.944000", "135845.947000", "135845.950000", "135845.952000", "135845.955000", "135845.957000", "135845.960000", "135845.963000", "135925.912000", "135925.915000", "135925.918000", "135925.921000", "135925.923000", "135925.926000", "135925.929000", "135925.931000", "135925.934000", "135925.936000", "135925.939000", "135925.942000", "135925.944000", "135925.947000", "135925.950000", "135925.952000", "135925.955000", "135925.957000", "135925.960000", "135925.963000", "140005.912000", "140005.914000", "140005.917000", "140005.920000", "140005.922000", "140005.925000", "140005.928000", "140005.930000", "140005.933000", "140005.936000", "140005.938000", "140005.941000", "140005.943000", "140005.946000", "140005.949000", "140005.951000", "140005.954000", "140005.957000", "140005.959000", "140005.962000", "140045.912000", "140045.915000", "140045.918000", "140045.921000", "140045.923000", "140045.926000", "140045.929000", "140045.931000", "140045.934000", "140045.936000", "140045.939000", "140045.942000", "140045.944000", "140045.947000", "140045.949000", "140045.952000", "140045.955000", "140045.957000", "140045.960000", "140045.962000", "140046.064000"],
      "InstanceCreationTime": ["135405.917000", "135405.921000", "135405.923000", "135405.926000", "135405.929000", "135405.931000", "135405.934000", "135405.936000", "135405.939000", "135405.942000", "135405.944000", "135405.958000", "135405.966000", "135405.969000", "135405.976000", "135405.979000", "135405.986000", "135405.989000", "135405.992000", "135405.994000", "135445.913000", "135445.915000", "135445.918000", "135445.921000", "135445.923000", "135445.926000", "135445.928000", "135445.931000", "135445.934000", "135445.936000", "135445.939000", "135445.941000", "135445.944000", "135445.947000", "135445.949000", "135445.952000", "135445.954000", "135445.957000", "135445.960000", "135445.962000", "135525.911000", "135525.914000", "135525.917000", "135525.920000", "135525.922000", "135525.925000", "135525.927000", "135525.938000", "135525.940000", "135525.943000", "135525.946000", "135525.954000", "135525.957000", "135525.959000", "135525.962000", "135525.965000", "135525.967000", "135525.970000", "135525.973000", "135525.975000", "135605.913000", "135605.916000", "135605.918000", "135605.921000", "135605.923000", "135605.926000", "135605.929000", "135605.931000", "135605.934000", "135605.937000", "135605.939000", "135605.942000", "135605.945000", "135605.947000", "135605.950000", "135605.952000", "135605.955000", "135605.958000", "135605.960000", "135605.963000", "135645.913000", "135645.915000", "135645.918000", "135645.921000", "135645.923000", "135645.926000", "135645.929000", "135645.931000", "135645.934000", "135645.936000", "135645.939000", "135645.942000", "135645.944000", "135645.947000", "135645.949000", "135645.952000", "135645.955000", "135645.957000", "135645.960000", "135645.963000", "135725.911000", "135725.914000", "135725.917000", "135725.920000", "135725.922000", "135725.925000", "135725.928000", "135725.930000", "135725.933000", "135725.944000", "135725.946000", "135725.949000", "135725.952000", "135725.954000", "135725.957000", "135725.959000", "135725.962000", "135725.965000", "135725.967000", "135725.970000", "135805.912000", "135805.914000", "135805.917000", "135805.920000", "135805.922000", "135805.925000", "135805.928000", "135805.930000", "135805.933000", "135805.936000", "135805.938000", "135805.941000", "135805.944000", "135805.946000", "135805.949000", "135805.951000", "135805.954000", "135805.957000", "135805.959000", "135805.962000", "135845.913000", "135845.915000", "135845.918000", "135845.921000", "135845.923000", "135845.926000", "135845.929000", "135845.931000", "135845.934000", "135845.936000", "135845.939000", "135845.942000", "135845.944000", "135845.947000", "135845.950000", "135845.952000", "135845.955000", "135845.957000", "135845.960000", "135845.963000", "135925.912000", "135925.915000", "135925.918000", "135925.921000", "135925.923000", "135925.926000", "135925.929000", "135925.931000", "135925.934000", "135925.936000", "135925.939000", "135925.942000", "135925.944000", "135925.947000", "135925.950000", "135925.952000", "135925.955000", "135925.957000", "135925.960000", "135925.963000", "140005.912000", "140005.914000", "140005.917000", "140005.920000", "140005.922000", "140005.925000", "140005.928000", "140005.930000", "140005.933000", "140005.936000", "140005.938000", "140005.941000", "140005.943000", "140005.946000", "140005.949000", "140005.951000", "140005.954000", "140005.957000", "140005.959000", "140005.962000", "140045.912000", "140045.915000", "140045.918000", "140045.921000", "140045.923000", "140045.926000", "140045.929000", "140045.931000", "140045.934000", "140045.936000", "140045.939000", "140045.942000", "140045.944000", "140045.947000", "140045.949000", "140045.952000", "140045.955000", "140045.957000", "140045.960000", "140045.962000", "140046.064000"],
      "InstanceNumber": [1, 2, 3, 4, 5, 6, 7, 8, 9, 10, 11, 12, 13, 14, 15, 16, 17, 18, 19, 20, 21, 22, 23, 24, 25, 26, 27, 28, 29, 30, 31, 32, 33, 34, 35, 36, 37, 38, 39, 40, 41, 42, 43, 44, 45, 46, 47, 48, 49, 50, 51, 52, 53, 54, 55, 56, 57, 58, 59, 60, 61, 62, 63, 64, 65, 66, 67, 68, 69, 70, 71, 72, 73, 74, 75, 76, 77, 78, 79, 80, 81, 82, 83, 84, 85, 86, 87, 88, 89, 90, 91, 92, 93, 94, 95, 96, 97, 98, 99, 100, 101, 102, 103, 104, 105, 106, 107, 108, 109, 110, 111, 112, 113, 114, 115, 116, 117, 118, 119, 120, 121, 122, 123, 124, 125, 126, 127, 128, 129, 130, 131, 132, 133, 134, 135, 136, 137, 138, 139, 140, 141, 142, 143, 144, 145, 146, 147, 148, 149, 150, 151, 152, 153, 154, 155, 156, 157, 158, 159, 160, 161, 162, 163, 164, 165, 166, 167, 168, 169, 170, 171, 172, 173, 174, 175, 176, 177, 178, 179, 180, 181, 182, 183, 184, 185, 186, 187, 188, 189, 190, 191, 192, 193, 194, 195, 196, 197, 198, 199, 200, 201, 202, 203, 204, 205, 206, 207, 208, 209, 210, 211, 212, 213, 214, 215, 216, 217, 218, 219, 220, 221],
      "LargestImagePixelValue": [1773, 1836, 1836, 2028, 1858, 2193, 1947, 1841, 2115, 1707, 2128, 1651, 1742, 2181, 1953, 2007, 1666, 1959, 1647, 2135, 1628, 1768, 1633, 1717, 1773, 1638, 1716, 1696, 1993, 1735, 2113, 1711, 1655, 1821, 1619, 1909, 2059, 1619, 2033, 1785, 2170, 1602, 1894, 1667, 1821, 1829, 1947, 1636, 1821, 1924, 1665, 2151, 1817, 1712, 2071, 1612, 1672, 1834, 1660, 1953, 1774, 1653, 1985, 1658, 1924, 1630, 1679, 1966, 1622, 1952, 1674, 1818, 1953, 1606, 2222, 2064, 1649, 2094, 1702, 1644, 2133, 1681, 1665, 2068, 1664, 1697, 1992, 1709, 1730, 2002, 1593, 1892, 1683, 1663, 2011, 1926, 1647, 1903, 2047, 1765, 1890, 1613, 1999, 1817, 1773, 1911, 1674, 1675, 2033, 1645, 2245, 1762, 1783, 1930, 1627, 1871, 1891, 1759, 1791, 1672, 2034, 2116, 1802, 2016, 1644, 1847, 1814, 1729, 1710, 1622, 1624, 1625, 1990, 1638, 2105, 1661, 2186, 1827, 2187, 1611, 2001, 1626, 1926, 1645, 2000, 1657, 1894, 1640, 1795, 1698, 1763, 2131, 2070, 1699, 1974, 1618, 1747, 2034, 1677, 2157, 1844, 1679, 2201, 1927, 1650, 2154, 1848, 1665, 2088, 1851, 1685, 2248, 1642, 1778, 1783, 2037, 1669, 1929, 1700, 1678, 2122, 1675, 2058, 2070, 1879, 1917, 1598, 1915, 2140, 1784, 1975, 1763, 1659, 2079, 1956, 1588, 1991, 1703, 1987, 1686, 1832, 1870, 1621, 2124, 1774, 1682, 2132, 1760, 2024, 1759, 1622, 2032, 2145, 1713, 2420, 1702, 1728, 2120, 1996, 1830, 1678],
      "WindowCenter": [818.0, 819.0, 819.0, 820.0, 819.0, 819.0, 818.0, 817.0, 817.0, 817.0, 818.0, 817.0, 817.0, 818.0, 816.0, 816.0, 815.0, 817.0, 816.0, 816.0, 816.0, 816.0, 816.0, 816.0, 816.0, 817.0, 817.0, 818.0, 818.0, 817.0, 817.0, 815.0, 816.0, 816.0, 816.0, 817.0, 817.0, 817.0, 818.0, 817.0, 817.0, 816.0, 817.0, 817.0, 817.0, 817.0, 817.0, 817.0, 817.0, 818.0, 817.0, 818.0, 817.0, 816.0, 817.0, 816.0, 816.0, 817.0, 816.0, 817.0, 817.0, 816.0, 817.0, 816.0, 816.0, 816.0, 817.0, 817.0, 817.0, 817.0, 817.0, 818.0, 818.0, 817.0, 818.0, 817.0, 816.0, 818.0, 817.0, 817.0, 817.0, 817.0, 817.0, 818.0, 817.0, 817.0, 818.0, 818.0, 818.0, 818.0, 817.0, 818.0, 817.0, 817.0, 818.0, 817.0, 817.0, 818.0, 818.0, 817.0, 817.0, 817.0, 817.0, 817.0, 816.0, 817.0, 817.0, 818.0, 818.0, 817.0, 817.0, 816.0, 816.0, 817.0, 817.0, 817.0, 818.0, 818.0, 818.0, 818.0, 817.0, 817.0, 816.0, 817.0, 816.0, 816.0, 816.0, 816.0, 815.0, 816.0, 817.0, 818.0, 818.0, 817.0, 818.0, 817.0, 818.0, 817.0, 817.0, 816.0, 817.0, 817.0, 818.0, 817.0, 817.0, 816.0, 817.0, 817.0, 819.0, 819.0, 819.0, 819.0, 818.0, 816.0, 817.0, 817.0, 817.0, 818.0, 817.0, 818.0, 818.0, 817.0, 818.0, 818.0, 817.0, 818.0, 817.0, 817.0, 818.0, 818.0, 817.0, 818.0, 816.0, 816.0, 817.0, 817.0, 817.0, 817.0, 818.0, 818.0, 818.0, 817.0, 818.0, 818.0, 817.0, 817.0, 817.0, 818.0, 818.0, 817.0, 819.0, 819.0, 817.0, 816.0, 817.0, 816.0, 816.0, 816.0, 817.0, 817.0, 817.0, 818.0, 818.0, 818.0, 818.0, 818.0, 819.0, 817.0, 817.0, 817.0, 817.0, 819.0, 819.0, 817.0, 817.0, 817.0, 817.0, 818.0, 818.0, 816.0, 817.0],
      "WindowWidth": [1742.0, 1742.0, 1743.0, 1746.0, 1744.0, 1745.0, 1741.0, 1738.0, 1740.0, 1737.0, 1742.0, 1738.0, 1739.0, 1741.0, 1737.0, 1736.0, 1734.0, 1738.0, 1734.0, 1738.0, 1735.0, 1736.0, 1736.0, 1735.0, 1737.0, 1737.0, 1739.0, 1740.0, 1741.0, 1738.0, 1740.0, 1734.0, 1735.0, 1737.0, 1736.0, 1737.0, 1739.0, 1738.0, 1742.0, 1739.0, 1740.0, 1736.0, 1739.0, 1738.0, 1739.0, 1739.0, 1739.0, 1738.0, 1739.0, 1741.0, 1738.0, 1742.0, 1738.0, 1736.0, 1739.0, 1736.0, 1737.0, 1739.0, 1737.0, 1738.0, 1738.0, 1736.0, 1739.0, 1735.0, 1737.0, 1736.0, 1739.0, 1741.0, 1738.0, 1740.0, 1738.0, 1740.0, 1741.0, 1737.0, 1742.0, 1740.0, 1737.0, 1741.0, 1738.0, 1737.0, 1740.0, 1737.0, 1737.0, 1740.0, 1737.0, 1739.0, 1742.0, 1740.0, 1740.0, 1741.0, 1738.0, 1741.0, 1739.0, 1739.0, 1741.0, 1739.0, 1738.0, 1741.0, 1742.0, 1738.0, 1739.0, 1737.0, 1740.0, 1738.0, 1736.0, 1738.0, 1739.0, 1740.0, 1743.0, 1737.0, 1740.0, 1736.0, 1737.0, 1740.0, 1738.0, 1740.0, 1741.0, 1741.0, 1743.0, 1740.0, 1740.0, 1739.0, 1736.0, 1738.0, 1734.0, 1736.0, 1735.0, 1736.0, 1734.0, 1736.0, 1739.0, 1739.0, 1742.0, 1737.0, 1741.0, 1738.0, 1741.0, 1738.0, 1740.0, 1735.0, 1739.0, 1737.0, 1740.0, 1737.0, 1739.0, 1736.0, 1740.0, 1739.0, 1744.0, 1743.0, 1742.0, 1743.0, 1741.0, 1736.0, 1739.0, 1737.0, 1739.0, 1742.0, 1739.0, 1743.0, 1740.0, 1738.0, 1742.0, 1741.0, 1738.0, 1742.0, 1738.0, 1737.0, 1741.0, 1740.0, 1737.0, 1741.0, 1736.0, 1737.0, 1739.0, 1740.0, 1737.0, 1740.0, 1740.0, 1740.0, 1742.0, 1738.0, 1741.0, 1741.0, 1738.0, 1738.0, 1737.0, 1741.0, 1742.0, 1739.0, 1743.0, 1743.0, 1738.0, 1737.0, 1737.0, 1735.0, 1737.0, 1736.0, 1738.0, 1737.0, 1740.0, 1741.0, 1739.0, 1741.0, 1740.0, 1742.0, 1744.0, 1738.0, 1739.0, 1739.0, 1739.0, 1744.0, 1743.0, 1738.0, 1741.0, 1737.0, 1738.0, 1741.0, 1742.0, 1737.0, 1737.0]
    },
    "slices": {}
  }
}