{
  "AcquisitionMatrixPE": 70,
  "AcquisitionNumber": 1,
  "AcquisitionTime": "14:06:27.410000",
  "BandwidthPerPixelPhaseEncode": 51.948,
  "BaseResolution": 70,
  "BodyPartExamined": "HEAD",
  "CoilCombinationMethod": "Sum of Squares",
  "ConsistencyInfo": "N4_VE11C_LATEST_20160120",
  "ConversionSoftware": "dcm2niix",
  "ConversionSoftwareVersion": "v1.0.20220720",
  "DerivedVendorReportedEchoSpacing": 0.000550001,
  "DeviceSerialNumber": "66061",
  "DwellTime": 3.3e-06,
  "EchoTime": 0.022,
  "EchoTrainLength": 35,
  "EffectiveEchoSpacing": 0.000275,
  "FlipAngle": 90,
  "HeudiconvVersion": "1.1.1",
  "ImageOrientationPatientDICOM": [0.999962, 0.00277875, 0.00820649, -0.00122164, 0.982931, -0.183968],
  "ImageOrientationText": "Tra>Cor(-10.6)>Sag(0.5)",
  "ImageType": [
    "ORIGINAL",
    "PRIMARY",
    "M",
    "ND",
    "NORM",
    "MOSAIC"
],
  "ImagingFrequency": 123.255,
  "InPlanePhaseEncodingDirectionDICOM": "COL",
  "InstitutionAddress": "Street StreetNo,City/1c4204/,District,KR,ZIP",
  "InstitutionName": "SKKU",
  "InstitutionalDepartmentName": "Department",
  "MRAcquisitionType": "2D",
  "MagneticFieldStrength": 3,
  "Manufacturer": "Siemens",
  "ManufacturersModelName": "Prisma",
  "MatrixCoilMode": "GRAPPA",
  "Modality": "MR",
  "NonlinearGradientCorrection": false,
  "ParallelReductionFactorInPlane": 2,
  "PartialFourier": 1,
  "PatientPosition": "HFS",
  "PercentPhaseFOV": 100,
  "PercentSampling": 100,
  "PhaseEncodingDirection": "j-",
  "PhaseEncodingSteps": 70,
  "PhaseResolution": 1,
  "PixelBandwidth": 2165,
  "ProcedureStepDescription": "Head^PI:Others",
  "ProtocolName": "BOLD_ep2d_3x3x3_response2",
  "PulseSequenceDetails": "%SiemensSeq%\\ep2d_pace",
  "ReceiveCoilActiveElements": "HC1-7",
  "ReceiveCoilName": "HeadNeck_64",
  "ReconMatrixPE": 70,
  "RefLinesPE": 24,
  "RepetitionTime": 2,
  "SAR": 0.137674,
  "ScanOptions": "FS",
  "ScanningSequence": "EP",
  "SequenceName": "*epfid2d1_70",
  "SequenceVariant": "SK",
  "SeriesDescription": "BOLD_ep2d_3x3x3_response2",
  "SeriesNumber": 9,
  "ShimSetting": [5037, 3712, 4386, 503, -152, -249, -300, 92],
  "SliceThickness": 3,
  "SliceTiming": [0.99, 0, 1.0375, 0.0475, 1.085, 0.095, 1.1325, 0.1425, 1.18, 0.19, 1.2275, 0.2375, 1.2725, 0.2825, 1.32, 0.33, 1.3675, 0.3775, 1.415, 0.425, 1.4625, 0.4725, 1.51, 0.52, 1.5575, 0.5675, 1.6025, 0.6125, 1.65, 0.66, 1.6975, 0.7075, 1.745, 0.755, 1.7925, 0.8025, 1.84, 0.85, 1.8875, 0.8975, 1.9325, 0.9425],
  "SoftwareVersions": "syngo MR E11",
  "SpacingBetweenSlices": 3,
  "StationName": "AWP66061",
  "TaskName": "response",
  "TotalReadoutTime": 0.018975,
  "TxRefAmp": 231.459,
  "dcmmeta_affine": [
    [-2.999887466430664, -0.003664909629151225, 0.025732850655913353, 104.6957015991211],
    [-0.008336259983479977, 2.948794364929199, -0.5518540740013123, -89.85323333740234],
    [0.024619461968541145, 0.5519048571586609, 2.9486937522888184, -69.75399780273438],
    [0.0, 0.0, 0.0, 1.0]
],
  "dcmmeta_reorient_transform": [
    [0.0, -1.0, 0.0, 69.0],
    [1.0, 0.0, 0.0, 0.0],
    [0.0, 0.0, -1.0, 41.0],
    [0.0, 0.0, 0.0, 1.0]
],
  "dcmmeta_shape": [70, 70, 42, 341],
  "dcmmeta_slice_dim": 2,
  "dcmmeta_version": 0.6,
  "global": {
    "const": {
      "AcquisitionMatrix": [70, 0, 0, 70],
      "AngioFlag": "N",
      "BitsAllocated": 16,
      "BitsStored": 12,
      "BodyPartExamined": "HEAD",
      "Columns": 490,
      "EchoNumbers": 1,
      "EchoTime": 22.0,
      "EchoTrainLength": 35,
      "FlipAngle": 90.0,
      "HighBit": 11,
      "ImageOrientationPatient": [0.99996246534216, 0.00277875342488, 0.00820648744745, -0.0012216365284, 0.98293142161815, -0.1839682798743],
      "ImagePositionPatient": [-734.7045884475, -711.98496140657, 199.95381544399],
      "ImageType": [
        "ORIGINAL",
        "PRIMARY",
        "M",
        "ND",
        "NORM",
        "MOSAIC"
],
      "ImagedNucleus": "1H",
      "ImagingFrequency": 123.254557,
      "InPlanePhaseEncodingDirection": "COL",
      "MRAcquisitionType": "2D",
      "MagneticFieldStrength": 3.0,
      "Manufacturer": "SIEMENS",
      "ManufacturerModelName": "Prisma",
      "Modality": "MR",
      "NumberOfAverages": 1.0,
      "NumberOfPhaseEncodingSteps": 70,
      "PercentPhaseFieldOfView": 100.0,
      "PercentSampling": 100.0,
      "PerformedProcedureStepStartTime": "125327.772000",
      "PhotometricInterpretation": "MONOCHROME2",
      "PixelBandwidth": 2165.0,
      "PixelRepresentation": 0,
      "PixelSpacing": [3.0, 3.0],
      "ProtocolName": "BOLD_ep2d_3x3x3_response2",
      "RepetitionTime": 2000.0,
      "Rows": 490,
      "SAR": 0.13767412997322,
      "SamplesPerPixel": 1,
      "ScanOptions": "FS",
      "ScanningSequence": "EP",
      "SequenceName": "*epfid2d1_70",
      "SequenceVariant": "SK",
      "SeriesDescription": "BOLD_ep2d_3x3x3_response2",
      "SeriesNumber": 9,
      "SeriesTime": "140717.959000",
      "SliceLocation": 71.865609848936,
      "SliceThickness": 3.0,
      "SmallestImagePixelValue": 0,
      "SoftwareVersions": "syngo MR E11",
      "SpacingBetweenSlices": 3.0000000459373,
      "SpecificCharacterSet": "ISO_IR 100",
      "StudyID": "1",
      "StudyTime": "125327.701000",
      "TransmitCoilName": "Body",
      "VariableFlipAngleFlag": "N",
      "WindowCenterWidthExplanation": "Algo1",
      "dBdt": 0.0},
    "slices": {}
  },
  "time": {
    "samples": {
      "AcquisitionNumber": [1, 2, 3, 4, 5, 6, 7, 8, 9, 10, 11, 12, 13, 14, 15, 16, 17, 18, 19, 20, 21, 22, 23, 24, 25, 26, 27, 28, 29, 30, 31, 32, 33, 34, 35, 36, 37, 38, 39, 40, 41, 42, 43, 44, 45, 46, 47, 48, 49, 50, 51, 52, 53, 54, 55, 56, 57, 58, 59, 60, 61, 62, 63, 64, 65, 66, 67, 68, 69, 70, 71, 72, 73, 74, 75, 76, 77, 78, 79, 80, 81, 82, 83, 84, 85, 86, 87, 88, 89, 90, 91, 92, 93, 94, 95, 96, 97, 98, 99, 100, 101, 102, 103, 104, 105, 106, 107, 108, 109, 110, 111, 112, 113, 114, 115, 116, 117, 118, 119, 120, 121, 122, 123, 124, 125, 126, 127, 128, 129, 130, 131, 132, 133, 134, 135, 136, 137, 138, 139, 140, 141, 142, 143, 144, 145, 146, 147, 148, 149, 150, 151, 152, 153, 154, 155, 156, 157, 158, 159, 160, 161, 162, 163, 164, 165, 166, 167, 168, 169, 170, 171, 172, 173, 174, 175, 176, 177, 178, 179, 180, 181, 182, 183, 184, 185, 186, 187, 188, 189, 190, 191, 192, 193, 194, 195, 196, 197, 198, 199, 200, 201, 202, 203, 204, 205, 206, 207, 208, 209, 210, 211, 212, 213, 214, 215, 216, 217, 218, 219, 220, 221, 222, 223, 224, 225, 226, 227, 228, 229, 230, 231, 232, 233, 234, 235, 236, 237, 238, 239, 240, 241, 242, 243, 244, 245, 246, 247, 248, 249, 250, 251, 252, 253, 254, 255, 256, 257, 258, 259, 260, 261, 262, 263, 264, 265, 266, 267, 268, 269, 270, 271, 272, 273, 274, 275, 276, 277, 278, 279, 280, 281, 282, 283, 284, 285, 286, 287, 288, 289, 290, 291, 292, 293, 294, 295, 296, 297, 298, 299, 300, 301, 302, 303, 304, 305, 306, 307, 308, 309, 310, 311, 312, 313, 314, 315, 316, 317, 318, 319, 320, 321, 322, 323, 324, 325, 326, 327, 328, 329, 330, 331, 332, 333, 334, 335, 336, 337, 338, 339, 340, 341],
      "AcquisitionTime": ["140627.410000", "140629.410000", "140631.410000", "140633.410000", "140635.410000", "140637.410000", "140639.410000", "140641.410000", "140643.410000", "140645.410000", "140647.410000", "140649.410000", "140651.410000", "140653.410000", "140655.410000", "140657.410000", "140659.410000", "140701.410000", "140703.410000", "140705.410000", "140707.410000", "140709.410000", "140711.410000", "140713.410000", "140715.410000", "140717.410000", "140719.410000", "140721.410000", "140723.410000", "140725.410000", "140727.410000", "140729.410000", "140731.410000", "140733.410000", "140735.410000", "140737.410000", "140739.410000", "140741.410000", "140743.410000", "140745.410000", "140747.410000", "140749.410000", "140751.410000", "140753.410000", "140755.410000", "140757.410000", "140759.410000", "140801.410000", "140803.410000", "140805.410000", "140807.410000", "140809.410000", "140811.410000", "140813.410000", "140815.410000", "140817.410000", "140819.410000", "140821.410000", "140823.410000", "140825.410000", "140827.410000", "140829.410000", "140831.410000", "140833.410000", "140835.410000", "140837.410000", "140839.410000", "140841.410000", "140843.410000", "140845.410000", "140847.410000", "140849.410000", "140851.410000", "140853.410000", "140855.410000", "140857.410000", "140859.410000", "140901.410000", "140903.410000", "140905.410000", "140907.410000", "140909.410000", "140911.410000", "140913.410000", "140915.410000", "140917.410000", "140919.410000", "140921.410000", "140923.410000", "140925.410000", "140927.410000", "140929.410000", "140931.410000", "140933.410000", "140935.410000", "140937.410000", "140939.410000", "140941.410000", "140943.410000", "140945.410000", "140947.410000", "140949.410000", "140951.410000", "140953.410000", "140955.410000", "140957.410000", "140959.410000", "141001.410000", "141003.410000", "141005.410000", "141007.410000", "141009.410000", "141011.410000", "141013.410000", "141015.410000", "141017.410000", "141019.410000", "141021.410000", "141023.410000", "141025.410000", "141027.410000", "141029.410000", "141031.410000", "141033.410000", "141035.410000", "141037.410000", "141039.410000", "141041.410000", "141043.410000", "141045.410000", "141047.410000", "141049.410000", "141051.410000", "141053.410000", "141055.410000", "141057.410000", "141059.410000", "141101.410000", "141103.410000", "141105.410000", "141107.410000", "141109.410000", "141111.410000", "141113.410000", "141115.410000", "141117.410000", "141119.410000", "141121.410000", "141123.410000", "141125.410000", "141127.410000", "141129.410000", "141131.410000", "141133.410000", "141135.410000", "141137.410000", "141139.410000", "141141.410000", "141143.410000", "141145.410000", "141147.410000", "141149.410000", "141151.410000", "141153.410000", "141155.410000", "141157.410000", "141159.410000", "141201.410000", "141203.410000", "141205.410000", "141207.410000", "141209.410000", "141211.410000", "141213.410000", "141215.410000", "141217.410000", "141219.410000", "141221.410000", "141223.410000", "141225.410000", "141227.410000", "141229.410000", "141231.410000", "141233.410000", "141235.410000", "141237.410000", "141239.410000", "141241.410000", "141243.410000", "141245.410000", "141247.410000", "141249.410000", "141251.410000", "141253.410000", "141255.410000", "141257.410000", "141259.410000", "141301.410000", "141303.410000", "141305.410000", "141307.410000", "141309.410000", "141311.410000", "141313.410000", "141315.410000", "141317.410000", "141319.410000", "141321.410000", "141323.410000", "141325.410000", "141327.410000", "141329.410000", "141331.410000", "141333.410000", "141335.410000", "141337.410000", "141339.410000", "141341.410000", "141343.410000", "141345.410000", "141347.410000", "141349.410000", "141351.410000", "141353.410000", "141355.410000", "141357.410000", "141359.410000", "141401.410000", "141403.410000", "141405.410000", "141407.410000", "141409.410000", "141411.410000", "141413.410000", "141415.410000", "141417.410000", "141419.410000", "141421.410000", "141423.410000", "141425.410000", "141427.410000", "141429.410000", "141431.410000", "141433.410000", "141435.410000", "141437.410000", "141439.410000", "141441.410000", "141443.410000", "141445.410000", "141447.410000", "141449.410000", "141451.410000", "141453.410000", "141455.410000", "141457.410000", "141459.410000", "141501.410000", "141503.410000", "141505.410000", "141507.410000", "141509.410000", "141511.410000", "141513.410000", "141515.410000", "141517.410000", "141519.410000", "141521.410000", "141523.410000", "141525.410000", "141527.410000", "141529.410000", "141531.410000", "141533.410000", "141535.410000", "141537.410000", "141539.410000", "141541.410000", "141543.410000", "141545.410000", "141547.410000", "141549.410000", "141551.410000", "141553.410000", "141555.410000", "141557.410000", "141559.410000", "141601.410000", "141603.410000", "141605.410000", "141607.410000", "141609.410000", "141611.410000", "141613.410000", "141615.410000", "141617.410000", "141619.410000", "141621.410000", "141623.410000", "141625.410000", "141627.410000", "141629.410000", "141631.410000", "141633.410000", "141635.410000", "141637.410000", "141639.410000", "141641.410000", "141643.410000", "141645.410000", "141647.410000", "141649.410000", "141651.410000", "141653.410000", "141655.410000", "141657.410000", "141659.410000", "141701.410000", "141703.410000", "141705.410000", "141707.410000", "141709.410000", "141711.410000", "141713.410000", "141715.410000", "141717.410000", "141719.410000", "141721.410000", "141723.410000", "141725.410000", "141727.410000", "141729.410000", "141731.410000", "141733.410000", "141735.410000", "141737.410000", "141739.410000", "141741.410000", "141743.410000", "141745.410000", "141747.410000"],
      "ContentTime": ["140717.962000", "140717.966000", "140717.969000", "140717.972000", "140717.974000", "140717.977000", "140717.980000", "140717.983000", "140717.985000", "140718.000000", "140718.003000", "140718.013000", "140718.016000", "140718.019000", "140718.022000", "140718.024000", "140718.027000", "140718.030000", "140718.033000", "140718.035000", "140718.038000", "140718.041000", "140718.044000", "140718.046000", "140718.049000", "140757.957000", "140757.960000", "140757.962000", "140757.965000", "140757.968000", "140757.971000", "140757.974000", "140757.976000", "140757.979000", "140757.982000", "140757.985000", "140757.987000", "140757.990000", "140757.993000", "140757.996000", "140758.000000", "140758.003000", "140758.005000", "140758.008000", "140758.011000", "140837.957000", "140837.960000", "140837.962000", "140837.965000", "140837.968000", "140837.971000", "140837.982000", "140837.985000", "140837.988000", "140837.990000", "140837.993000", "140837.996000", "140838.000000", "140838.002000", "140838.005000", "140838.008000", "140838.011000", "140838.013000", "140838.016000", "140838.019000", "140917.957000", "140917.960000", "140917.962000", "140917.965000", "140917.968000", "140917.971000", "140917.974000", "140917.977000", "140917.979000", "140917.982000", "140917.985000", "140917.988000", "140917.990000", "140917.993000", "140917.996000", "140918.000000", "140918.002000", "140918.005000", "140918.008000", "140918.011000", "140957.957000", "140957.960000", "140957.962000", "140957.969000", "140957.972000", "140957.975000", "140957.977000", "140957.980000", "140957.983000", "140957.986000", "140957.988000", "140957.991000", "140957.994000", "140957.997000", "140958.001000", "140958.004000", "140958.006000", "140958.009000", "140958.012000", "140958.015000", "141037.957000", "141037.960000", "141037.962000", "141037.965000", "141037.968000", "141037.971000", "141037.974000", "141037.977000", "141037.979000", "141037.982000", "141037.985000", "141037.988000", "141037.990000", "141037.993000", "141037.996000", "141038.000000", "141038.002000", "141038.005000", "141038.008000", "141038.011000", "141117.957000", "141117.960000", "141117.962000", "141117.965000", "141117.968000", "141117.971000", "141117.973000", "141117.976000", "141117.979000", "141117.982000", "141117.985000", "141117.988000", "141117.990000", "141117.993000", "141117.996000", "141117.998000", "141118.002000", "141118.005000", "141118.008000", "141118.010000", "141157.958000", "141157.961000", "141157.964000", "141157.966000", "141157.969000", "141157.972000", "141157.975000", "141157.977000", "141157.980000", "141157.983000", "141157.986000", "141157.989000", "141157.991000", "141157.994000", "141157.997000", "141158.001000", "141158.004000", "141158.006000", "141158.009000", "141158.012000", "141237.957000", "141237.960000", "141237.963000", "141237.966000", "141237.968000", "141237.981000", "141237.984000", "141237.987000", "141237.990000", "141237.992000", "141237.995000", "141237.998000", "141238.002000", "141238.005000", "141238.007000", "141238.010000", "141238.013000", "141238.016000", "141238.018000", "141238.021000", "141317.957000", "141317.960000", "141317.962000", "141317.965000", "141317.968000", "141317.971000", "141317.974000", "141317.977000", "141317.979000", "141317.982000", "141317.985000", "141317.988000", "141317.990000", "141317.993000", "141317.998000", "141318.002000", "141318.004000", "141318.007000", "141318.010000", "141318.013000", "141357.958000", "141357.961000", "141357.963000", "141357.966000", "141357.969000", "141357.972000", "141357.975000", "141357.978000", "141357.980000", "141357.983000", "141357.986000", "141357.989000", "141357.992000", "141357.994000", "141357.997000", "141358.000000", "141358.003000", "141358.006000", "141358.008000", "141358.011000", "141437.957000", "141437.960000", "141437.962000", "141437.965000", "141437.968000", "141437.971000", "141437.974000", "141437.977000", "141437.979000", "141437.982000", "141437.985000", "141437.988000", "141437.990000", "141437.993000", "141437.996000", "141438.000000", "141438.003000", "141438.005000", "141438.008000", "141438.011000", "141517.957000", "141517.960000", "141517.962000", "141517.965000", "141517.968000", "141517.971000", "141517.974000", "141517.977000", "141517.979000", "141517.982000", "141517.985000", "141517.988000", "141517.991000", "141517.993000", "141517.996000", "141518.000000", "141518.003000", "141518.006000", "141518.008000", "141518.011000", "141557.957000", "141557.960000", "141557.963000", "141557.965000", "141557.968000", "141557.971000", "141557.974000", "141557.977000", "141557.979000", "141557.982000", "141557.985000", "141557.988000", "141557.991000", "141557.993000", "141557.996000", "141558.000000", "141558.003000", "141558.005000", "141558.008000", "141558.011000", "141637.958000", "141637.961000", "141637.963000", "141637.966000", "141637.969000", "141637.972000", "141637.975000", "141637.978000", "141637.980000", "141637.983000", "141637.986000", "141637.989000", "141637.991000", "141637.994000", "141637.997000", "141638.001000", "141638.003000", "141638.006000", "141638.009000", "141638.012000", "141717.957000", "141717.960000", "141717.963000", "141717.966000", "141717.968000", "141717.971000", "141717.974000", "141717.977000", "141717.980000", "141717.982000", "141717.985000", "141717.988000", "141717.991000", "141717.993000", "141717.996000", "141718.000000", "141718.003000", "141718.006000", "141718.008000", "141718.011000", "141749.109000", "141749.112000", "141749.115000", "141749.118000", "141749.121000", "141749.124000", "141749.126000", "141749.129000", "141749.132000", "141749.135000", "141749.138000", "141749.145000", "141749.148000", "141749.151000", "141749.154000", "141749.163000"],
      "DataSetTrailingPadding": [
        "\u0000\u0000\u0000\u0000\u0000\u0000\u0000\u0000\u0000\u0000\u0000\u0000\u0000\u0000\u0000\u0000\u0000\u0000\u0000\u0000\u0000\u0000\u0000\u0000",
        "\u0000\u0000\u0000\u0000\u0000\u0000\u0000\u0000\u0000\u0000\u0000\u0000\u0000\u0000\u0000\u0000\u0000\u0000\u0000\u0000\u0000\u0000\u0000\u0000",
        "\u0000\u0000\u0000\u0000\u0000\u0000\u0000\u0000\u0000\u0000\u0000\u0000\u0000\u0000\u0000\u0000\u0000\u0000\u0000\u0000\u0000\u0000\u0000\u0000",
        "\u0000\u0000\u0000\u0000\u0000\u0000\u0000\u0000\u0000\u0000\u0000\u0000\u0000\u0000\u0000\u0000\u0000\u0000\u0000\u0000\u0000\u0000\u0000\u0000\u0000\u0000",
        "\u0000\u0000\u0000\u0000\u0000\u0000\u0000\u0000\u0000\u0000\u0000\u0000\u0000\u0000\u0000\u0000\u0000\u0000\u0000\u0000\u0000\u0000",
        "\u0000\u0000\u0000\u0000\u0000\u0000\u0000\u0000\u0000\u0000\u0000\u0000\u0000\u0000\u0000\u0000\u0000\u0000\u0000\u0000\u0000\u0000\u0000\u0000",
        "\u0000\u0000\u0000\u0000\u0000\u0000\u0000\u0000\u0000\u0000\u0000\u0000\u0000\u0000\u0000\u0000\u0000\u0000\u0000\u0000\u0000\u0000\u0000\u0000",
        "\u0000\u0000\u0000\u0000\u0000\u0000\u0000\u0000\u0000\u0000\u0000\u0000\u0000\u0000\u0000\u0000\u0000\u0000\u0000\u0000\u0000\u0000",
        "\u0000\u0000\u0000\u0000\u0000\u0000\u0000\u0000\u0000\u0000\u0000\u0000\u0000\u0000\u0000\u0000\u0000\u0000\u0000\u0000\u0000\u0000\u0000\u0000",
        "\u0000\u0000\u0000\u0000\u0000\u0000\u0000\u0000\u0000\u0000\u0000\u0000\u0000\u0000\u0000\u0000\u0000\u0000\u0000\u0000\u0000\u0000",
        "\u0000\u0000\u0000\u0000\u0000\u0000\u0000\u0000\u0000\u0000\u0000\u0000\u0000\u0000\u0000\u0000\u0000\u0000\u0000\u0000\u0000\u0000\u0000\u0000\u0000\u0000",
        "\u0000\u0000\u0000\u0000\u0000\u0000\u0000\u0000\u0000\u0000\u0000\u0000\u0000\u0000\u0000\u0000\u0000\u0000\u0000\u0000\u0000\u0000",
        "\u0000\u0000\u0000\u0000\u0000\u0000\u0000\u0000\u0000\u0000\u0000\u0000\u0000\u0000\u0000\u0000\u0000\u0000\u0000\u0000\u0000\u0000\u0000\u0000",
        "\u0000\u0000\u0000\u0000\u0000\u0000\u0000\u0000\u0000\u0000\u0000\u0000\u0000\u0000\u0000\u0000\u0000\u0000\u0000\u0000\u0000\u0000",
        "\u0000\u0000\u0000\u0000\u0000\u0000\u0000\u0000\u0000\u0000\u0000\u0000\u0000\u0000\u0000\u0000\u0000\u0000\u0000\u0000\u0000\u0000\u0000\u0000",
        "\u0000\u0000\u0000\u0000\u0000\u0000\u0000\u0000\u0000\u0000\u0000\u0000\u0000\u0000\u0000\u0000\u0000\u0000\u0000\u0000\u0000\u0000\u0000\u0000",
        "\u0000\u0000\u0000\u0000\u0000\u0000\u0000\u0000\u0000\u0000\u0000\u0000\u0000\u0000\u0000\u0000\u0000\u0000\u0000\u0000\u0000\u0000\u0000\u0000",
        "\u0000\u0000\u0000\u0000\u0000\u0000\u0000\u0000\u0000\u0000\u0000\u0000\u0000\u0000\u0000\u0000\u0000\u0000\u0000\u0000\u0000\u0000\u0000\u0000",
        "\u0000\u0000\u0000\u0000\u0000\u0000\u0000\u0000\u0000\u0000\u0000\u0000\u0000\u0000\u0000\u0000\u0000\u0000\u0000\u0000\u0000\u0000",
        "\u0000\u0000\u0000\u0000\u0000\u0000\u0000\u0000\u0000\u0000\u0000\u0000\u0000\u0000\u0000\u0000\u0000\u0000\u0000\u0000\u0000\u0000\u0000\u0000",
        "\u0000\u0000\u0000\u0000\u0000\u0000\u0000\u0000\u0000\u0000\u0000\u0000\u0000\u0000\u0000\u0000\u0000\u0000\u0000\u0000\u0000\u0000",
        "\u0000\u0000\u0000\u0000\u0000\u0000\u0000\u0000\u0000\u0000\u0000\u0000\u0000\u0000\u0000\u0000\u0000\u0000\u0000\u0000\u0000\u0000",
        "\u0000\u0000\u0000\u0000\u0000\u0000\u0000\u0000\u0000\u0000\u0000\u0000\u0000\u0000\u0000\u0000\u0000\u0000\u0000\u0000\u0000\u0000\u0000\u0000",
        "\u0000\u0000\u0000\u0000\u0000\u0000\u0000\u0000\u0000\u0000\u0000\u0000\u0000\u0000\u0000\u0000\u0000\u0000\u0000\u0000\u0000\u0000\u0000\u0000",
        "\u0000\u0000\u0000\u0000\u0000\u0000\u0000\u0000\u0000\u0000\u0000\u0000\u0000\u0000\u0000\u0000\u0000\u0000\u0000\u0000\u0000\u0000",
        "\u0000\u0000\u0000\u0000\u0000\u0000\u0000\u0000\u0000\u0000\u0000\u0000\u0000\u0000\u0000\u0000\u0000\u0000\u0000\u0000\u0000\u0000",
        "\u0000\u0000\u0000\u0000\u0000\u0000\u0000\u0000\u0000\u0000\u0000\u0000\u0000\u0000\u0000\u0000\u0000\u0000\u0000\u0000\u0000\u0000\u0000\u0000\u0000\u0000",
        "\u0000\u0000\u0000\u0000\u0000\u0000\u0000\u0000\u0000\u0000\u0000\u0000\u0000\u0000\u0000\u0000\u0000\u0000\u0000\u0000\u0000\u0000\u0000\u0000",
        "\u0000\u0000\u0000\u0000\u0000\u0000\u0000\u0000\u0000\u0000\u0000\u0000\u0000\u0000\u0000\u0000\u0000\u0000\u0000\u0000\u0000\u0000\u0000\u0000\u0000\u0000",
        "\u0000\u0000\u0000\u0000\u0000\u0000\u0000\u0000\u0000\u0000\u0000\u0000\u0000\u0000\u0000\u0000\u0000\u0000\u0000\u0000\u0000\u0000\u0000\u0000\u0000\u0000",
        "\u0000\u0000\u0000\u0000\u0000\u0000\u0000\u0000\u0000\u0000\u0000\u0000\u0000\u0000\u0000\u0000\u0000\u0000\u0000\u0000\u0000\u0000\u0000\u0000",
        "\u0000\u0000\u0000\u0000\u0000\u0000\u0000\u0000\u0000\u0000\u0000\u0000\u0000\u0000\u0000\u0000\u0000\u0000\u0000\u0000\u0000\u0000\u0000\u0000",
        "\u0000\u0000\u0000\u0000\u0000\u0000\u0000\u0000\u0000\u0000\u0000\u0000\u0000\u0000\u0000\u0000\u0000\u0000\u0000\u0000\u0000\u0000\u0000\u0000",
        "\u0000\u0000\u0000\u0000\u0000\u0000\u0000\u0000\u0000\u0000\u0000\u0000\u0000\u0000\u0000\u0000\u0000\u0000\u0000\u0000\u0000\u0000\u0000\u0000",
        "\u0000\u0000\u0000\u0000\u0000\u0000\u0000\u0000\u0000\u0000\u0000\u0000\u0000\u0000\u0000\u0000\u0000\u0000\u0000\u0000\u0000\u0000\u0000\u0000",
        "\u0000\u0000\u0000\u0000\u0000\u0000\u0000\u0000\u0000\u0000\u0000\u0000\u0000\u0000\u0000\u0000\u0000\u0000\u0000\u0000\u0000\u0000\u0000\u0000\u0000\u0000",
        "\u0000\u0000\u0000\u0000\u0000\u0000\u0000\u0000\u0000\u0000\u0000\u0000\u0000\u0000\u0000\u0000\u0000\u0000\u0000\u0000\u0000\u0000\u0000\u0000",
        "\u0000\u0000\u0000\u0000\u0000\u0000\u0000\u0000\u0000\u0000\u0000\u0000\u0000\u0000\u0000\u0000\u0000\u0000\u0000\u0000\u0000\u0000\u0000\u0000",
        "\u0000\u0000\u0000\u0000\u0000\u0000\u0000\u0000\u0000\u0000\u0000\u0000\u0000\u0000\u0000\u0000\u0000\u0000\u0000\u0000\u0000\u0000\u0000\u0000",
        "\u0000\u0000\u0000\u0000\u0000\u0000\u0000\u0000\u0000\u0000\u0000\u0000\u0000\u0000\u0000\u0000\u0000\u0000\u0000\u0000\u0000\u0000\u0000\u0000",
        "\u0000\u0000\u0000\u0000\u0000\u0000\u0000\u0000\u0000\u0000\u0000\u0000\u0000\u0000\u0000\u0000\u0000\u0000\u0000\u0000\u0000\u0000\u0000\u0000",
        "\u0000\u0000\u0000\u0000\u0000\u0000\u0000\u0000\u0000\u0000\u0000\u0000\u0000\u0000\u0000\u0000\u0000\u0000\u0000\u0000\u0000\u0000\u0000\u0000",
        "\u0000\u0000\u0000\u0000\u0000\u0000\u0000\u0000\u0000\u0000\u0000\u0000\u0000\u0000\u0000\u0000\u0000\u0000\u0000\u0000\u0000\u0000\u0000\u0000",
        "\u0000\u0000\u0000\u0000\u0000\u0000\u0000\u0000\u0000\u0000\u0000\u0000\u0000\u0000\u0000\u0000\u0000\u0000\u0000\u0000\u0000\u0000\u0000\u0000",
        "\u0000\u0000\u0000\u0000\u0000\u0000\u0000\u0000\u0000\u0000\u0000\u0000\u0000\u0000\u0000\u0000\u0000\u0000\u0000\u0000\u0000\u0000\u0000\u0000",
        "\u0000\u0000\u0000\u0000\u0000\u0000\u0000\u0000\u0000\u0000\u0000\u0000\u0000\u0000\u0000\u0000\u0000\u0000\u0000\u0000\u0000\u0000\u0000\u0000",
        "\u0000\u0000\u0000\u0000\u0000\u0000\u0000\u0000\u0000\u0000\u0000\u0000\u0000\u0000\u0000\u0000\u0000\u0000\u0000\u0000\u0000\u0000\u0000\u0000",
        "\u0000\u0000\u0000\u0000\u0000\u0000\u0000\u0000\u0000\u0000\u0000\u0000\u0000\u0000\u0000\u0000\u0000\u0000\u0000\u0000\u0000\u0000\u0000\u0000",
        "\u0000\u0000\u0000\u0000\u0000\u0000\u0000\u0000\u0000\u0000\u0000\u0000\u0000\u0000\u0000\u0000\u0000\u0000\u0000\u0000\u0000\u0000\u0000\u0000",
        "\u0000\u0000\u0000\u0000\u0000\u0000\u0000\u0000\u0000\u0000\u0000\u0000\u0000\u0000\u0000\u0000\u0000\u0000\u0000\u0000",
        "\u0000\u0000\u0000\u0000\u0000\u0000\u0000\u0000\u0000\u0000\u0000\u0000\u0000\u0000\u0000\u0000\u0000\u0000\u0000\u0000",
        "\u0000\u0000\u0000\u0000\u0000\u0000\u0000\u0000\u0000\u0000\u0000\u0000\u0000\u0000\u0000\u0000\u0000\u0000\u0000\u0000",
        "\u0000\u0000\u0000\u0000\u0000\u0000\u0000\u0000\u0000\u0000\u0000\u0000\u0000\u0000\u0000\u0000\u0000\u0000\u0000\u0000",
        "\u0000\u0000\u0000\u0000\u0000\u0000\u0000\u0000\u0000\u0000\u0000\u0000\u0000\u0000\u0000\u0000\u0000\u0000\u0000\u0000",
        "\u0000\u0000\u0000\u0000\u0000\u0000\u0000\u0000\u0000\u0000\u0000\u0000\u0000\u0000\u0000\u0000\u0000\u0000\u0000\u0000",
        "\u0000\u0000\u0000\u0000\u0000\u0000\u0000\u0000\u0000\u0000\u0000\u0000\u0000\u0000\u0000\u0000\u0000\u0000\u0000\u0000",
        "\u0000\u0000\u0000\u0000\u0000\u0000\u0000\u0000\u0000\u0000\u0000\u0000\u0000\u0000\u0000\u0000\u0000\u0000\u0000\u0000",
        "\u0000\u0000\u0000\u0000\u0000\u0000\u0000\u0000\u0000\u0000\u0000\u0000\u0000\u0000\u0000\u0000\u0000\u0000\u0000\u0000",
        "\u0000\u0000\u0000\u0000\u0000\u0000\u0000\u0000\u0000\u0000\u0000\u0000\u0000\u0000\u0000\u0000\u0000\u0000\u0000\u0000",
        "\u0000\u0000\u0000\u0000\u0000\u0000\u0000\u0000\u0000\u0000\u0000\u0000\u0000\u0000\u0000\u0000\u0000\u0000\u0000\u0000",
        "\u0000\u0000\u0000\u0000\u0000\u0000\u0000\u0000\u0000\u0000\u0000\u0000\u0000\u0000\u0000\u0000\u0000\u0000\u0000\u0000",
        "\u0000\u0000\u0000\u0000\u0000\u0000\u0000\u0000\u0000\u0000\u0000\u0000\u0000\u0000\u0000\u0000\u0000\u0000\u0000\u0000",
        "\u0000\u0000\u0000\u0000\u0000\u0000\u0000\u0000\u0000\u0000\u0000\u0000\u0000\u0000\u0000\u0000\u0000\u0000\u0000\u0000",
        "\u0000\u0000\u0000\u0000\u0000\u0000\u0000\u0000\u0000\u0000\u0000\u0000\u0000\u0000\u0000\u0000\u0000\u0000\u0000\u0000",
        "\u0000\u0000\u0000\u0000\u0000\u0000\u0000\u0000\u0000\u0000\u0000\u0000\u0000\u0000\u0000\u0000\u0000\u0000\u0000\u0000",
        "\u0000\u0000\u0000\u0000\u0000\u0000\u0000\u0000\u0000\u0000\u0000\u0000\u0000\u0000\u0000\u0000\u0000\u0000\u0000\u0000",
        "\u0000\u0000\u0000\u0000\u0000\u0000\u0000\u0000\u0000\u0000\u0000\u0000\u0000\u0000\u0000\u0000\u0000\u0000\u0000\u0000",
        "\u0000\u0000\u0000\u0000\u0000\u0000\u0000\u0000\u0000\u0000\u0000\u0000\u0000\u0000\u0000\u0000\u0000\u0000\u0000\u0000",
        "\u0000\u0000\u0000\u0000\u0000\u0000\u0000\u0000\u0000\u0000\u0000\u0000\u0000\u0000\u0000\u0000\u0000\u0000\u0000\u0000",
        "\u0000\u0000\u0000\u0000\u0000\u0000\u0000\u0000\u0000\u0000\u0000\u0000\u0000\u0000\u0000\u0000\u0000\u0000\u0000\u0000",
        "\u0000\u0000\u0000\u0000\u0000\u0000\u0000\u0000\u0000\u0000\u0000\u0000\u0000\u0000\u0000\u0000\u0000\u0000\u0000\u0000",
        "\u0000\u0000\u0000\u0000\u0000\u0000\u0000\u0000\u0000\u0000\u0000\u0000\u0000\u0000\u0000\u0000\u0000\u0000\u0000\u0000",
        "\u0000\u0000\u0000\u0000\u0000\u0000\u0000\u0000\u0000\u0000\u0000\u0000\u0000\u0000\u0000\u0000\u0000\u0000\u0000\u0000",
        "\u0000\u0000\u0000\u0000\u0000\u0000\u0000\u0000\u0000\u0000\u0000\u0000\u0000\u0000\u0000\u0000\u0000\u0000\u0000\u0000",
        "\u0000\u0000\u0000\u0000\u0000\u0000\u0000\u0000\u0000\u0000\u0000\u0000\u0000\u0000\u0000\u0000\u0000\u0000\u0000\u0000",
        "\u0000\u0000\u0000\u0000\u0000\u0000\u0000\u0000\u0000\u0000\u0000\u0000\u0000\u0000\u0000\u0000\u0000\u0000\u0000\u0000",
        "\u0000\u0000\u0000\u0000\u0000\u0000\u0000\u0000\u0000\u0000\u0000\u0000\u0000\u0000\u0000\u0000\u0000\u0000\u0000\u0000",
