{
  "AcquisitionMatrixPE": 70,
  "AcquisitionNumber": 1,
  "AcquisitionTime": "13:52:58.722500",
  "BandwidthPerPixelPhaseEncode": 51.948,
  "BaseResolution": 70,
  "BodyPartExamined": "HEAD",
  "CoilCombinationMethod": "Sum of Squares",
  "ConsistencyInfo": "N4_VE11C_LATEST_20160120",
  "ConversionSoftware": "dcm2niix",
  "ConversionSoftwareVersion": "v1.0.20220720",
  "DerivedVendorReportedEchoSpacing": 0.000550001,
  "DeviceSerialNumber": "66061",
  "DwellTime": 3.3e-06,
  "EchoTime": 0.022,
  "EchoTrainLength": 35,
  "EffectiveEchoSpacing": 0.000275,
  "FlipAngle": 90,
  "HeudiconvVersion": "1.1.1",
  "ImageOrientationPatientDICOM": [0.999962, 0.00277875, 0.00820649, -0.00122164, 0.982931, -0.183968],
  "ImageOrientationText": "Tra>Cor(-10.6)>Sag(0.5)",
  "ImageType": [
    "ORIGINAL",
    "PRIMARY",
    "M",
    "ND",
    "NORM",
    "MOSAIC"
],
  "ImagingFrequency": 123.255,
  "InPlanePhaseEncodingDirectionDICOM": "COL",
  "InstitutionAddress": "Street StreetNo,City/1c4204/,District,KR,ZIP",
  "InstitutionName": "SKKU",
  "InstitutionalDepartmentName": "Department",
  "MRAcquisitionType": "2D",
  "MagneticFieldStrength": 3,
  "Manufacturer": "Siemens",
  "ManufacturersModelName": "Prisma",
  "MatrixCoilMode": "GRAPPA",
  "Modality": "MR",
  "NonlinearGradientCorrection": false,
  "ParallelReductionFactorInPlane": 2,
  "PartialFourier": 1,
  "PatientPosition": "HFS",
  "PercentPhaseFOV": 100,
  "PercentSampling": 100,
  "PhaseEncodingDirection": "j-",
  "PhaseEncodingSteps": 70,
  "PhaseResolution": 1,
  "PixelBandwidth": 2165,
  "ProcedureStepDescription": "Head^PI:Others",
  "ProtocolName": "BOLD_ep2d_3x3x3_response1",
  "PulseSequenceDetails": "%SiemensSeq%\\ep2d_pace",
  "ReceiveCoilActiveElements": "HC1-7",
  "ReceiveCoilName": "HeadNeck_64",
  "ReconMatrixPE": 70,
  "RefLinesPE": 24,
  "RepetitionTime": 2,
  "SAR": 0.137674,
  "ScanOptions": "FS",
  "ScanningSequence": "EP",
  "SequenceName": "*epfid2d1_70",
  "SequenceVariant": "SK",
  "SeriesDescription": "BOLD_ep2d_3x3x3_response1",
  "SeriesNumber": 8,
  "ShimSetting": [5037, 3712, 4386, 503, -152, -249, -300, 92],
  "SliceThickness": 3,
  "SliceTiming": [0.99, 0, 1.0375, 0.0475, 1.0825, 0.095, 1.13, 0.14, 1.1775, 0.1875, 1.225, 0.235, 1.2725, 0.2825, 1.32, 0.33, 1.3675, 0.3775, 1.4125, 0.425, 1.46, 0.47, 1.5075, 0.5175, 1.555, 0.565, 1.6025, 0.6125, 1.65, 0.66, 1.6975, 0.7075, 1.7425, 0.755, 1.79, 0.8, 1.8375, 0.8475, 1.885, 0.895, 1.9325, 0.9425],
  "SoftwareVersions": "syngo MR E11",
  "SpacingBetweenSlices": 3,
  "StationName": "AWP66061",
  "TaskName": "response",
  "TotalReadoutTime": 0.018975,
  "TxRefAmp": 231.459,
  "dcmmeta_affine": [
    [-2.999887466430664, -0.003664909629151225, 0.025732850655913353, 104.6957015991211],
    [-0.008336259983479977, 2.948794364929199, -0.5518540740013123, -89.85323333740234],
    [0.024619461968541145, 0.5519048571586609, 2.9486937522888184, -69.75399780273438],
    [0.0, 0.0, 0.0, 1.0]
],
  "dcmmeta_reorient_transform": [
    [0.0, -1.0, 0.0, 69.0],
    [1.0, 0.0, 0.0, 0.0],
    [0.0, 0.0, -1.0, 41.0],
    [0.0, 0.0, 0.0, 1.0]
],
  "dcmmeta_shape": [70, 70, 42, 341],
  "dcmmeta_slice_dim": 2,
  "dcmmeta_version": 0.6,
  "global": {
    "const": {
      "AcquisitionMatrix": [70, 0, 0, 70],
      "AngioFlag": "N",
      "BitsAllocated": 16,
      "BitsStored": 12,
      "BodyPartExamined": "HEAD",
      "Columns": 490,
      "EchoNumbers": 1,
      "EchoTime": 22.0,
      "EchoTrainLength": 35,
      "FlipAngle": 90.0,
      "HighBit": 11,
      "ImageOrientationPatient": [0.99996246534216, 0.00277875342488, 0.00820648744745, -0.0012216365284, 0.98293142161815, -0.1839682798743],
      "ImagePositionPatient": [-734.7045884475, -711.98496140657, 199.95381544399],
      "ImageType": [
        "ORIGINAL",
        "PRIMARY",
        "M",
        "ND",
        "NORM",
        "MOSAIC"
],
      "ImagedNucleus": "1H",
      "ImagingFrequency": 123.254555,
      "InPlanePhaseEncodingDirection": "COL",
      "MRAcquisitionType": "2D",
      "MagneticFieldStrength": 3.0,
      "Manufacturer": "SIEMENS",
      "ManufacturerModelName": "Prisma",
      "Modality": "MR",
      "NumberOfAverages": 1.0,
      "NumberOfPhaseEncodingSteps": 70,
      "PercentPhaseFieldOfView": 100.0,
      "PercentSampling": 100.0,
      "PerformedProcedureStepStartTime": "125327.772000",
      "PhotometricInterpretation": "MONOCHROME2",
      "PixelBandwidth": 2165.0,
      "PixelRepresentation": 0,
      "PixelSpacing": [3.0, 3.0],
      "ProtocolName": "BOLD_ep2d_3x3x3_response1",
      "RepetitionTime": 2000.0,
      "Rows": 490,
      "SAR": 0.13767412997322,
      "SamplesPerPixel": 1,
      "ScanOptions": "FS",
      "ScanningSequence": "EP",
      "SequenceName": "*epfid2d1_70",
      "SequenceVariant": "SK",
      "SeriesDescription": "BOLD_ep2d_3x3x3_response1",
      "SeriesNumber": 8,
      "SeriesTime": "135342.094000",
      "SliceLocation": 71.865609848936,
      "SliceThickness": 3.0,
      "SmallestImagePixelValue": 0,
      "SoftwareVersions": "syngo MR E11",
      "SpacingBetweenSlices": 3.0000000459373,
      "SpecificCharacterSet": "ISO_IR 100",
      "StudyID": "1",
      "StudyTime": "125327.701000",
      "TransmitCoilName": "Body",
      "VariableFlipAngleFlag": "N",
      "WindowCenterWidthExplanation": "Algo1",
      "dBdt": 0.0},
    "slices": {}
  },
  "time": {
    "samples": {
      "AcquisitionNumber": [1, 2, 3, 4, 5, 6, 7, 8, 9, 10, 11, 12, 13, 14, 15, 16, 17, 18, 19, 20, 21, 22, 23, 24, 25, 26, 27, 28, 29, 30, 31, 32, 33, 34, 35, 36, 37, 38, 39, 40, 41, 42, 43, 44, 45, 46, 47, 48, 49, 50, 51, 52, 53, 54, 55, 56, 57, 58, 59, 60, 61, 62, 63, 64, 65, 66, 67, 68, 69, 70, 71, 72, 73, 74, 75, 76, 77, 78, 79, 80, 81, 82, 83, 84, 85, 86, 87, 88, 89, 90, 91, 92, 93, 94, 95, 96, 97, 98, 99, 100, 101, 102, 103, 104, 105, 106, 107, 108, 109, 110, 111, 112, 113, 114, 115, 116, 117, 118, 119, 120, 121, 122, 123, 124, 125, 126, 127, 128, 129, 130, 131, 132, 133, 134, 135, 136, 137, 138, 139, 140, 141, 142, 143, 144, 145, 146, 147, 148, 149, 150, 151, 152, 153, 154, 155, 156, 157, 158, 159, 160, 161, 162, 163, 164, 165, 166, 167, 168, 169, 170, 171, 172, 173, 174, 175, 176, 177, 178, 179, 180, 181, 182, 183, 184, 185, 186, 187, 188, 189, 190, 191, 192, 193, 194, 195, 196, 197, 198, 199, 200, 201, 202, 203, 204, 205, 206, 207, 208, 209, 210, 211, 212, 213, 214, 215, 216, 217, 218, 219, 220, 221, 222, 223, 224, 225, 226, 227, 228, 229, 230, 231, 232, 233, 234, 235, 236, 237, 238, 239, 240, 241, 242, 243, 244, 245, 246, 247, 248, 249, 250, 251, 252, 253, 254, 255, 256, 257, 258, 259, 260, 261, 262, 263, 264, 265, 266, 267, 268, 269, 270, 271, 272, 273, 274, 275, 276, 277, 278, 279, 280, 281, 282, 283, 284, 285, 286, 287, 288, 289, 290, 291, 292, 293, 294, 295, 296, 297, 298, 299, 300, 301, 302, 303, 304, 305, 306, 307, 308, 309, 310, 311, 312, 313, 314, 315, 316, 317, 318, 319, 320, 321, 322, 323, 324, 325, 326, 327, 328, 329, 330, 331, 332, 333, 334, 335, 336, 337, 338, 339, 340, 341],
      "AcquisitionTime": ["135258.722500", "135300.722500", "135302.722500", "135304.722500", "135306.722500", "135308.722500", "135310.722500", "135312.722500", "135314.722500", "135316.722500", "135318.722500", "135320.722500", "135322.722500", "135324.722500", "135326.722500", "135328.722500", "135330.722500", "135332.722500", "135334.722500", "135336.722500", "135338.722500", "135340.722500", "135342.722500", "135344.722500", "135346.722500", "135348.722500", "135350.722500", "135352.722500", "135354.722500", "135356.722500", "135358.722500", "135400.722500", "135402.722500", "135404.722500", "135406.722500", "135408.722500", "135410.722500", "135412.722500", "135414.722500", "135416.722500", "135418.722500", "135420.722500", "135422.722500", "135424.722500", "135426.722500", "135428.722500", "135430.722500", "135432.722500", "135434.722500", "135436.722500", "135438.722500", "135440.722500", "135442.722500", "135444.722500", "135446.722500", "135448.722500", "135450.722500", "135452.722500", "135454.722500", "135456.722500", "135458.722500", "135500.722500", "135502.722500", "135504.722500", "135506.722500", "135508.722500", "135510.722500", "135512.722500", "135514.722500", "135516.722500", "135518.722500", "135520.722500", "135522.722500", "135524.722500", "135526.722500", "135528.722500", "135530.722500", "135532.722500", "135534.722500", "135536.722500", "135538.722500", "135540.722500", "135542.722500", "135544.722500", "135546.722500", "135548.722500", "135550.722500", "135552.722500", "135554.722500", "135556.722500", "135558.722500", "135600.722500", "135602.722500", "135604.722500", "135606.722500", "135608.722500", "135610.722500", "135612.722500", "135614.722500", "135616.722500", "135618.722500", "135620.722500", "135622.722500", "135624.722500", "135626.722500", "135628.722500", "135630.722500", "135632.722500", "135634.722500", "135636.722500", "135638.722500", "135640.722500", "135642.722500", "135644.722500", "135646.722500", "135648.722500", "135650.722500", "135652.722500", "135654.722500", "135656.722500", "135658.722500", "135700.722500", "135702.722500", "135704.722500", "135706.722500", "135708.722500", "135710.722500", "135712.722500", "135714.722500", "135716.722500", "135718.722500", "135720.722500", "135722.722500", "135724.722500", "135726.722500", "135728.722500", "135730.722500", "135732.722500", "135734.722500", "135736.722500", "135738.722500", "135740.722500", "135742.722500", "135744.722500", "135746.722500", "135748.722500", "135750.722500", "135752.722500", "135754.722500", "135756.722500", "135758.722500", "135800.722500", "135802.722500", "135804.722500", "135806.722500", "135808.722500", "135810.722500", "135812.722500", "135814.722500", "135816.722500", "135818.722500", "135820.722500", "135822.722500", "135824.722500", "135826.722500", "135828.722500", "135830.722500", "135832.722500", "135834.722500", "135836.722500", "135838.722500", "135840.722500", "135842.722500", "135844.722500", "135846.722500", "135848.722500", "135850.722500", "135852.722500", "135854.722500", "135856.722500", "135858.722500", "135900.722500", "135902.722500", "135904.722500", "135906.722500", "135908.722500", "135910.722500", "135912.722500", "135914.722500", "135916.722500", "135918.722500", "135920.722500", "135922.722500", "135924.722500", "135926.722500", "135928.722500", "135930.722500", "135932.722500", "135934.722500", "135936.722500", "135938.722500", "135940.722500", "135942.722500", "135944.722500", "135946.722500", "135948.722500", "135950.722500", "135952.722500", "135954.722500", "135956.722500", "135958.722500", "140000.722500", "140002.722500", "140004.722500", "140006.722500", "140008.722500", "140010.722500", "140012.722500", "140014.722500", "140016.722500", "140018.722500", "140020.722500", "140022.722500", "140024.722500", "140026.722500", "140028.722500", "140030.722500", "140032.722500", "140034.722500", "140036.722500", "140038.722500", "140040.722500", "140042.722500", "140044.722500", "140046.722500", "140048.722500", "140050.722500", "140052.722500", "140054.722500", "140056.722500", "140058.722500", "140100.722500", "140102.722500", "140104.722500", "140106.722500", "140108.722500", "140110.722500", "140112.722500", "140114.722500", "140116.722500", "140118.722500", "140120.722500", "140122.722500", "140124.722500", "140126.722500", "140128.722500", "140130.722500", "140132.722500", "140134.722500", "140136.722500", "140138.722500", "140140.722500", "140142.722500", "140144.722500", "140146.722500", "140148.722500", "140150.722500", "140152.722500", "140154.722500", "140156.722500", "140158.722500", "140200.722500", "140202.722500", "140204.722500", "140206.722500", "140208.722500", "140210.722500", "140212.722500", "140214.722500", "140216.722500", "140218.722500", "140220.722500", "140222.722500", "140224.722500", "140226.722500", "140228.722500", "140230.722500", "140232.722500", "140234.722500", "140236.722500", "140238.722500", "140240.722500", "140242.722500", "140244.722500", "140246.722500", "140248.722500", "140250.722500", "140252.722500", "140254.722500", "140256.722500", "140258.722500", "140300.722500", "140302.722500", "140304.722500", "140306.722500", "140308.722500", "140310.722500", "140312.722500", "140314.722500", "140316.722500", "140318.722500", "140320.722500", "140322.722500", "140324.722500", "140326.722500", "140328.722500", "140330.722500", "140332.722500", "140334.722500", "140336.722500", "140338.722500", "140340.722500", "140342.722500", "140344.722500", "140346.722500", "140348.722500", "140350.722500", "140352.722500", "140354.722500", "140356.722500", "140358.722500", "140400.722500", "140402.722500", "140404.722500", "140406.722500", "140408.722500", "140410.722500", "140412.722500", "140414.722500", "140416.722500", "140418.722500"],
      "ContentTime": ["135342.097000", "135342.101000", "135342.104000", "135342.114000", "135342.120000", "135342.123000", "135342.125000", "135342.128000", "135342.131000", "135342.134000", "135342.136000", "135342.139000", "135342.142000", "135342.145000", "135342.147000", "135342.150000", "135342.158000", "135342.160000", "135342.163000", "135342.166000", "135342.169000", "135422.093000", "135422.096000", "135422.098000", "135422.101000", "135422.104000", "135422.107000", "135422.110000", "135422.112000", "135422.115000", "135422.118000", "135422.121000", "135422.123000", "135422.126000", "135422.129000", "135422.132000", "135422.134000", "135422.137000", "135422.140000", "135422.143000", "135422.145000", "135502.093000", "135502.096000", "135502.099000", "135502.101000", "135502.104000", "135502.107000", "135502.110000", "135502.112000", "135502.115000", "135502.118000", "135502.121000", "135502.123000", "135502.132000", "135502.135000", "135502.137000", "135502.140000", "135502.143000", "135502.146000", "135502.148000", "135502.151000", "135542.093000", "135542.096000", "135542.098000", "135542.101000", "135542.104000", "135542.107000", "135542.110000", "135542.113000", "135542.115000", "135542.118000", "135542.121000", "135542.124000", "135542.126000", "135542.129000", "135542.132000", "135542.135000", "135542.138000", "135542.140000", "135542.143000", "135542.146000", "135622.093000", "135622.096000", "135622.099000", "135622.101000", "135622.117000", "135622.119000", "135622.122000", "135622.125000", "135622.128000", "135622.130000", "135622.133000", "135622.136000", "135622.139000", "135622.141000", "135622.144000", "135622.147000", "135622.150000", "135622.152000", "135622.155000", "135622.158000", "135702.092000", "135702.095000", "135702.098000", "135702.100000", "135702.103000", "135702.106000", "135702.109000", "135702.111000", "135702.114000", "135702.117000", "135702.120000", "135702.122000", "135702.125000", "135702.128000", "135702.142000", "135702.144000", "135702.147000", "135702.150000", "135702.153000", "135702.156000", "135722.093000", "135722.096000", "135722.098000", "135722.101000", "135722.104000", "135722.107000", "135722.110000", "135722.112000", "135722.117000", "135722.120000", "135802.093000", "135802.096000", "135802.098000", "135802.101000", "135802.104000", "135802.107000", "135802.110000", "135802.112000", "135802.115000", "135802.118000", "135802.121000", "135802.124000", "135802.127000", "135802.129000", "135802.132000", "135802.135000", "135802.138000", "135802.140000", "135802.143000", "135802.146000", "135842.093000", "135842.096000", "135842.099000", "135842.101000", "135842.104000", "135842.107000", "135842.110000", "135842.113000", "135842.115000", "135842.118000", "135842.121000", "135842.124000", "135842.126000", "135842.129000", "135842.132000", "135842.135000", "135842.137000", "135842.140000", "135842.143000", "135842.146000", "135922.092000", "135922.095000", "135922.098000", "135922.101000", "135922.103000", "135922.106000", "135922.109000", "135922.112000", "135922.115000", "135922.118000", "135922.121000", "135922.123000", "135922.126000", "135922.129000", "135922.132000", "135922.135000", "135922.138000", "135922.140000", "135922.143000", "135922.146000", "140002.093000", "140002.096000", "140002.098000", "140002.101000", "140002.104000", "140002.107000", "140002.109000", "140002.112000", "140002.115000", "140002.118000", "140002.121000", "140002.123000", "140002.126000", "140002.129000", "140002.132000", "140002.135000", "140002.138000", "140002.140000", "140002.143000", "140002.146000", "140042.093000", "140042.096000", "140042.098000", "140042.101000", "140042.110000", "140042.113000", "140042.116000", "140042.118000", "140042.121000", "140042.124000", "140042.127000", "140042.130000", "140042.133000", "140042.135000", "140042.138000", "140042.141000", "140042.143000", "140042.146000", "140042.149000", "140042.152000", "140122.093000", "140122.096000", "140122.098000", "140122.101000", "140122.104000", "140122.107000", "140122.110000", "140122.112000", "140122.115000", "140122.118000", "140122.121000", "140122.124000", "140122.127000", "140122.129000", "140122.132000", "140122.135000", "140122.138000", "140122.141000", "140122.143000", "140122.146000", "140202.093000", "140202.096000", "140202.099000", "140202.101000", "140202.104000", "140202.107000", "140202.110000", "140202.113000", "140202.115000", "140202.118000", "140202.121000", "140202.124000", "140202.127000", "140202.129000", "140202.132000", "140202.135000", "140202.138000", "140202.140000", "140202.143000", "140202.146000", "140242.093000", "140242.096000", "140242.099000", "140242.101000", "140242.104000", "140242.107000", "140242.110000", "140242.113000", "140242.115000", "140242.118000", "140242.121000", "140242.124000", "140242.126000", "140242.129000", "140242.132000", "140242.135000", "140242.138000", "140242.141000", "140242.143000", "140242.146000", "140322.093000", "140322.096000", "140322.099000", "140322.101000", "140322.104000", "140322.107000", "140322.110000", "140322.113000", "140322.115000", "140322.118000", "140322.121000", "140322.124000", "140322.127000", "140322.129000", "140322.132000", "140322.135000", "140322.138000", "140322.141000", "140322.143000", "140322.146000", "140402.092000", "140402.095000", "140402.098000", "140402.101000", "140402.103000", "140402.106000", "140402.109000", "140402.112000", "140402.114000", "140402.117000", "140402.120000", "140402.123000", "140402.141000", "140402.143000", "140402.146000", "140402.149000", "140402.152000", "140402.155000", "140402.157000", "140402.160000", "140420.677000", "140420.680000", "140420.683000", "140420.686000", "140420.689000", "140420.692000", "140420.695000", "140420.698000", "140420.701000", "140420.704000"],
      "DataSetTrailingPadding": [
        "\u0000\u0000\u0000\u0000\u0000\u0000\u0000\u0000\u0000\u0000\u0000\u0000\u0000\u0000\u0000\u0000\u0000\u0000\u0000\u0000\u0000\u0000",
        "\u0000\u0000\u0000\u0000\u0000\u0000\u0000\u0000\u0000\u0000\u0000\u0000\u0000\u0000\u0000\u0000\u0000\u0000\u0000\u0000\u0000\u0000\u0000\u0000",
        "\u0000\u0000\u0000\u0000\u0000\u0000\u0000\u0000\u0000\u0000\u0000\u0000\u0000\u0000\u0000\u0000\u0000\u0000\u0000\u0000\u0000\u0000\u0000\u0000",
        "\u0000\u0000\u0000\u0000\u0000\u0000\u0000\u0000\u0000\u0000\u0000\u0000\u0000\u0000\u0000\u0000\u0000\u0000\u0000\u0000\u0000\u0000\u0000\u0000",
        "\u0000\u0000\u0000\u0000\u0000\u0000\u0000\u0000\u0000\u0000\u0000\u0000\u0000\u0000\u0000\u0000\u0000\u0000\u0000\u0000\u0000\u0000",
        "\u0000\u0000\u0000\u0000\u0000\u0000\u0000\u0000\u0000\u0000\u0000\u0000\u0000\u0000\u0000\u0000\u0000\u0000\u0000\u0000\u0000\u0000",
        "\u0000\u0000\u0000\u0000\u0000\u0000\u0000\u0000\u0000\u0000\u0000\u0000\u0000\u0000\u0000\u0000\u0000\u0000\u0000\u0000\u0000\u0000",
        "\u0000\u0000\u0000\u0000\u0000\u0000\u0000\u0000\u0000\u0000\u0000\u0000\u0000\u0000\u0000\u0000\u0000\u0000\u0000\u0000\u0000\u0000",
        "\u0000\u0000\u0000\u0000\u0000\u0000\u0000\u0000\u0000\u0000\u0000\u0000\u0000\u0000\u0000\u0000\u0000\u0000\u0000\u0000\u0000\u0000",
        "\u0000\u0000\u0000\u0000\u0000\u0000\u0000\u0000\u0000\u0000\u0000\u0000\u0000\u0000\u0000\u0000\u0000\u0000\u0000\u0000\u0000\u0000",
        "\u0000\u0000\u0000\u0000\u0000\u0000\u0000\u0000\u0000\u0000\u0000\u0000\u0000\u0000\u0000\u0000\u0000\u0000\u0000\u0000\u0000\u0000",
        "\u0000\u0000\u0000\u0000\u0000\u0000\u0000\u0000\u0000\u0000\u0000\u0000\u0000\u0000\u0000\u0000\u0000\u0000\u0000\u0000\u0000\u0000",
        "\u0000\u0000\u0000\u0000\u0000\u0000\u0000\u0000\u0000\u0000\u0000\u0000\u0000\u0000\u0000\u0000\u0000\u0000\u0000\u0000\u0000\u0000",
        "\u0000\u0000\u0000\u0000\u0000\u0000\u0000\u0000\u0000\u0000\u0000\u0000\u0000\u0000\u0000\u0000\u0000\u0000\u0000\u0000\u0000\u0000",
        "\u0000\u0000\u0000\u0000\u0000\u0000\u0000\u0000\u0000\u0000\u0000\u0000\u0000\u0000\u0000\u0000\u0000\u0000\u0000\u0000\u0000\u0000",
        "\u0000\u0000\u0000\u0000\u0000\u0000\u0000\u0000\u0000\u0000\u0000\u0000\u0000\u0000\u0000\u0000\u0000\u0000\u0000\u0000\u0000\u0000",
        "\u0000\u0000\u0000\u0000\u0000\u0000\u0000\u0000\u0000\u0000\u0000\u0000\u0000\u0000\u0000\u0000\u0000\u0000\u0000\u0000\u0000\u0000",
        "\u0000\u0000\u0000\u0000\u0000\u0000\u0000\u0000\u0000\u0000\u0000\u0000\u0000\u0000\u0000\u0000\u0000\u0000\u0000\u0000\u0000\u0000",
        "\u0000\u0000\u0000\u0000\u0000\u0000\u0000\u0000\u0000\u0000\u0000\u0000\u0000\u0000\u0000\u0000\u0000\u0000\u0000\u0000\u0000\u0000",
        "\u0000\u0000\u0000\u0000\u0000\u0000\u0000\u0000\u0000\u0000\u0000\u0000\u0000\u0000\u0000\u0000\u0000\u0000\u0000\u0000\u0000\u0000",
        "\u0000\u0000\u0000\u0000\u0000\u0000\u0000\u0000\u0000\u0000\u0000\u0000\u0000\u0000\u0000\u0000\u0000\u0000\u0000\u0000\u0000\u0000",
        "\u0000\u0000\u0000\u0000\u0000\u0000\u0000\u0000\u0000\u0000\u0000\u0000\u0000\u0000\u0000\u0000\u0000\u0000\u0000\u0000\u0000\u0000",
        "\u0000\u0000\u0000\u0000\u0000\u0000\u0000\u0000\u0000\u0000\u0000\u0000\u0000\u0000\u0000\u0000\u0000\u0000\u0000\u0000\u0000\u0000",
        "\u0000\u0000\u0000\u0000\u0000\u0000\u0000\u0000\u0000\u0000\u0000\u0000\u0000\u0000\u0000\u0000\u0000\u0000\u0000\u0000\u0000\u0000",
        "\u0000\u0000\u0000\u0000\u0000\u0000\u0000\u0000\u0000\u0000\u0000\u0000\u0000\u0000\u0000\u0000\u0000\u0000\u0000\u0000\u0000\u0000",
        "\u0000\u0000\u0000\u0000\u0000\u0000\u0000\u0000\u0000\u0000\u0000\u0000\u0000\u0000\u0000\u0000\u0000\u0000\u0000\u0000\u0000\u0000",
        "\u0000\u0000\u0000\u0000\u0000\u0000\u0000\u0000\u0000\u0000\u0000\u0000\u0000\u0000\u0000\u0000\u0000\u0000\u0000\u0000\u0000\u0000",
        "\u0000\u0000\u0000\u0000\u0000\u0000\u0000\u0000\u0000\u0000\u0000\u0000\u0000\u0000\u0000\u0000\u0000\u0000\u0000\u0000\u0000\u0000",
        "\u0000\u0000\u0000\u0000\u0000\u0000\u0000\u0000\u0000\u0000\u0000\u0000\u0000\u0000\u0000\u0000\u0000\u0000\u0000\u0000\u0000\u0000",
        "\u0000\u0000\u0000\u0000\u0000\u0000\u0000\u0000\u0000\u0000\u0000\u0000\u0000\u0000\u0000\u0000\u0000\u0000\u0000\u0000\u0000\u0000",
        "\u0000\u0000\u0000\u0000\u0000\u0000\u0000\u0000\u0000\u0000\u0000\u0000\u0000\u0000\u0000\u0000\u0000\u0000\u0000\u0000\u0000\u0000",
        "\u0000\u0000\u0000\u0000\u0000\u0000\u0000\u0000\u0000\u0000\u0000\u0000\u0000\u0000\u0000\u0000\u0000\u0000\u0000\u0000\u0000\u0000",
        "\u0000\u0000\u0000\u0000\u0000\u0000\u0000\u0000\u0000\u0000\u0000\u0000\u0000\u0000\u0000\u0000\u0000\u0000\u0000\u0000\u0000\u0000",
        "\u0000\u0000\u0000\u0000\u0000\u0000\u0000\u0000\u0000\u0000\u0000\u0000\u0000\u0000\u0000\u0000\u0000\u0000\u0000\u0000\u0000\u0000",
        "\u0000\u0000\u0000\u0000\u0000\u0000\u0000\u0000\u0000\u0000\u0000\u0000\u0000\u0000\u0000\u0000\u0000\u0000\u0000\u0000\u0000\u0000",
        "\u0000\u0000\u0000\u0000\u0000\u0000\u0000\u0000\u0000\u0000\u0000\u0000\u0000\u0000\u0000\u0000\u0000\u0000\u0000\u0000\u0000\u0000",
        "\u0000\u0000\u0000\u0000\u0000\u0000\u0000\u0000\u0000\u0000\u0000\u0000\u0000\u0000\u0000\u0000\u0000\u0000\u0000\u0000\u0000\u0000",
        "\u0000\u0000\u0000\u0000\u0000\u0000\u0000\u0000\u0000\u0000\u0000\u0000\u0000\u0000\u0000\u0000\u0000\u0000\u0000\u0000\u0000\u0000",
        "\u0000\u0000\u0000\u0000\u0000\u0000\u0000\u0000\u0000\u0000\u0000\u0000\u0000\u0000\u0000\u0000\u0000\u0000\u0000\u0000\u0000\u0000",
        "\u0000\u0000\u0000\u0000\u0000\u0000\u0000\u0000\u0000\u0000\u0000\u0000\u0000\u0000\u0000\u0000\u0000\u0000\u0000\u0000\u0000\u0000",
        "\u0000\u0000\u0000\u0000\u0000\u0000\u0000\u0000\u0000\u0000\u0000\u0000\u0000\u0000\u0000\u0000\u0000\u0000\u0000\u0000\u0000\u0000",
        "\u0000\u0000\u0000\u0000\u0000\u0000\u0000\u0000\u0000\u0000\u0000\u0000\u0000\u0000\u0000\u0000\u0000\u0000\u0000\u0000\u0000\u0000",
        "\u0000\u0000\u0000\u0000\u0000\u0000\u0000\u0000\u0000\u0000\u0000\u0000\u0000\u0000\u0000\u0000\u0000\u0000\u0000\u0000\u0000\u0000",
        "\u0000\u0000\u0000\u0000\u0000\u0000\u0000\u0000\u0000\u0000\u0000\u0000\u0000\u0000\u0000\u0000\u0000\u0000\u0000\u0000\u0000\u0000",
        "\u0000\u0000\u0000\u0000\u0000\u0000\u0000\u0000\u0000\u0000\u0000\u0000\u0000\u0000\u0000\u0000\u0000\u0000\u0000\u0000\u0000\u0000",
        "\u0000\u0000\u0000\u0000\u0000\u0000\u0000\u0000\u0000\u0000\u0000\u0000\u0000\u0000\u0000\u0000\u0000\u0000\u0000\u0000\u0000\u0000",
        "\u0000\u0000\u0000\u0000\u0000\u0000\u0000\u0000\u0000\u0000\u0000\u0000\u0000\u0000\u0000\u0000\u0000\u0000\u0000\u0000\u0000\u0000",
        "\u0000\u0000\u0000\u0000\u0000\u0000\u0000\u0000\u0000\u0000\u0000\u0000\u0000\u0000\u0000\u0000\u0000\u0000\u0000\u0000\u0000\u0000",
        "\u0000\u0000\u0000\u0000\u0000\u0000\u0000\u0000\u0000\u0000\u0000\u0000\u0000\u0000\u0000\u0000\u0000\u0000\u0000\u0000\u0000\u0000",
        "\u0000\u0000\u0000\u0000\u0000\u0000\u0000\u0000\u0000\u0000\u0000\u0000\u0000\u0000\u0000\u0000\u0000\u0000",
        "\u0000\u0000\u0000\u0000\u0000\u0000\u0000\u0000\u0000\u0000\u0000\u0000\u0000\u0000\u0000\u0000\u0000\u0000",
        "\u0000\u0000\u0000\u0000\u0000\u0000\u0000\u0000\u0000\u0000\u0000\u0000\u0000\u0000\u0000\u0000\u0000\u0000",
        "\u0000\u0000\u0000\u0000\u0000\u0000\u0000\u0000\u0000\u0000\u0000\u0000\u0000\u0000\u0000\u0000\u0000\u0000",
        "\u0000\u0000\u0000\u0000\u0000\u0000\u0000\u0000\u0000\u0000\u0000\u0000\u0000\u0000\u0000\u0000\u0000\u0000",
        "\u0000\u0000\u0000\u0000\u0000\u0000\u0000\u0000\u0000\u0000\u0000\u0000\u0000\u0000\u0000\u0000\u0000\u0000",
        "\u0000\u0000\u0000\u0000\u0000\u0000\u0000\u0000\u0000\u0000\u0000\u0000\u0000\u0000\u0000\u0000\u0000\u0000",
        "\u0000\u0000\u0000\u0000\u0000\u0000\u0000\u0000\u0000\u0000\u0000\u0000\u0000\u0000\u0000\u0000\u0000\u0000",
        "\u0000\u0000\u0000\u0000\u0000\u0000\u0000\u0000\u0000\u0000\u0000\u0000\u0000\u0000\u0000\u0000\u0000\u0000",
        "\u0000\u0000\u0000\u0000\u0000\u0000\u0000\u0000\u0000\u0000\u0000\u0000\u0000\u0000\u0000\u0000\u0000\u0000",
        "\u0000\u0000\u0000\u0000\u0000\u0000\u0000\u0000\u0000\u0000\u0000\u0000\u0000\u0000\u0000\u0000\u0000\u0000",
        "\u0000\u0000\u0000\u0000\u0000\u0000\u0000\u0000\u0000\u0000\u0000\u0000\u0000\u0000\u0000\u0000\u0000\u0000",
        "\u0000\u0000\u0000\u0000\u0000\u0000\u0000\u0000\u0000\u0000\u0000\u0000\u0000\u0000\u0000\u0000\u0000\u0000",
        "\u0000\u0000\u0000\u0000\u0000\u0000\u0000\u0000\u0000\u0000\u0000\u0000\u0000\u0000\u0000\u0000\u0000\u0000",
        "\u0000\u0000\u0000\u0000\u0000\u0000\u0000\u0000\u0000\u0000\u0000\u0000\u0000\u0000\u0000\u0000\u0000\u0000",
        "\u0000\u0000\u0000\u0000\u0000\u0000\u0000\u0000\u0000\u0000\u0000\u0000\u0000\u0000\u0000\u0000\u0000\u0000",
        "\u0000\u0000\u0000\u0000\u0000\u0000\u0000\u0000\u0000\u0000\u0000\u0000\u0000\u0000\u0000\u0000\u0000\u0000",
        "\u0000\u0000\u0000\u0000\u0000\u0000\u0000\u0000\u0000\u0000\u0000\u0000\u0000\u0000\u0000\u0000\u0000\u0000",
        "\u0000\u0000\u0000\u0000\u0000\u0000\u0000\u0000\u0000\u0000\u0000\u0000\u0000\u0000\u0000\u0000\u0000\u0000",
        "\u0000\u0000\u0000\u0000\u0000\u0000\u0000\u0000\u0000\u0000\u0000\u0000\u0000\u0000\u0000\u0000\u0000\u0000",
        "\u0000\u0000\u0000\u0000\u0000\u0000\u0000\u0000\u0000\u0000\u0000\u0000\u0000\u0000\u0000\u0000\u0000\u0000",
        "\u0000\u0000\u0000\u0000\u0000\u0000\u0000\u0000\u0000\u0000\u0000\u0000\u0000\u0000\u0000\u0000\u0000\u0000",
        "\u0000\u0000\u0000\u0000\u0000\u0000\u0000\u0000\u0000\u0000\u0000\u0000\u0000\u0000\u0000\u0000\u0000\u0000",
        "\u0000\u0000\u0000\u0000\u0000\u0000\u0000\u0000\u0000\u0000\u0000\u0000\u0000\u0000\u0000\u0000\u0000\u0000",
        "\u0000\u0000\u0000\u0000\u0000\u0000\u0000\u0000\u0000\u0000\u0000\u0000\u0000\u0000\u0000\u0000\u0000\u0000",
        "\u0000\u0000\u0000\u0000\u0000\u0000\u0000\u0000\u0000\u0000\u0000\u0000\u0000\u0000\u0000\u0000\u0000\u0000",
        "\u0000\u0000\u0000\u0000\u0000\u0000\u0000\u0000\u0000\u0000\u0000\u0000\u0000\u0000\u0000\u0000\u0000\u0000",
        "\u0000\u0000\u0000\u0000\u0000\u0000\u0000\u0000\u0000\u0000\u0000\u0000\u0000\u0000\u0000\u0000\u0000\u0000",
        "\u0000\u0000\u0000\u0000\u0000\u0000\u0000\u0000\u0000\u0000\u0000\u0000\u0000\u0000\u0000\u0000\u0000\u0000",
        "\u0000\u0000\u0000\u0000\u0000\u0000\u0000\u0000\u0000\u0000\u0000\u0000\u0000\u0000\u0000\u0000\u0000\u0000",
        "\u0000\u0000\u0000\u0000\u0000\u0000\u0000\u0000\u0000\u0000\u0000\u0000\u0000\u0000\u0000\u0000\u0000\u0000",
        "\u0000\u0000\u0000\u0000\u0000\u0000\u0000\u0000\u0000\u0000\u0000\u0000\u0000\u0000\u0000\u0000\u0000\u0000",
        "\u0000\u0000\u0000\u0000\u0000\u0000\u0000\u0000\u0000\u0000\u0000\u0000\u0000\u0000\u0000\u0000\u0000\u0000",
        "\u0000\u0000\u0000\u0000\u0000\u0000\u0000\u0000\u0000\u0000\u0000\u0000\u0000\u0000\u0000\u0000\u0000\u0000",
        "\u0000\u0000\u0000\u0000\u0000\u0000\u0000\u0000\u0000\u0000\u0000\u0000\u0000\u0000\u0000\u0000\u0000\u0000",
