{
  "AcquisitionMatrixPE": 70,
  "AcquisitionNumber": 1,
  "AcquisitionTime": "13:17:59.307500",
  "BandwidthPerPixelPhaseEncode": 51.948,
  "BaseResolution": 70,
  "BodyPartExamined": "HEAD",
  "CoilCombinationMethod": "Sum of Squares",
  "ConsistencyInfo": "N4_VE11C_LATEST_20160120",
  "ConversionSoftware": "dcm2niix",
  "ConversionSoftwareVersion": "v1.0.20220720",
  "DerivedVendorReportedEchoSpacing": 0.000550001,
  "DeviceSerialNumber": "66061",
  "DwellTime": 3.3e-06,
  "EchoTime": 0.022,
  "EchoTrainLength": 35,
  "EffectiveEchoSpacing": 0.000275,
  "FlipAngle": 90,
  "HeudiconvVersion": "1.1.1",
  "ImageOrientationPatientDICOM": [0.999962, 0.00277875, 0.00820649, -0.00122164, 0.982931, -0.183968],
  "ImageOrientationText": "Tra>Cor(-10.6)>Sag(0.5)",
  "ImageType": [
    "ORIGINAL",
    "PRIMARY",
    "M",
    "ND",
    "NORM",
    "MOSAIC"
],
  "ImagingFrequency": 123.255,
  "InPlanePhaseEncodingDirectionDICOM": "COL",
  "InstitutionAddress": "Street StreetNo,City/1c4204/,District,KR,ZIP",
  "InstitutionName": "SKKU",
  "InstitutionalDepartmentName": "Department",
  "MRAcquisitionType": "2D",
  "MagneticFieldStrength": 3,
  "Manufacturer": "Siemens",
  "ManufacturersModelName": "Prisma",
  "MatrixCoilMode": "GRAPPA",
  "Modality": "MR",
  "NonlinearGradientCorrection": false,
  "ParallelReductionFactorInPlane": 2,
  "PartialFourier": 1,
  "PatientPosition": "HFS",
  "PercentPhaseFOV": 100,
  "PercentSampling": 100,
  "PhaseEncodingDirection": "j-",
  "PhaseEncodingSteps": 70,
  "PhaseResolution": 1,
  "PixelBandwidth": 2165,
  "ProcedureStepDescription": "Head^PI:Others",
  "ProtocolName": "BOLD_ep2d_3x3x3_dimension1",
  "PulseSequenceDetails": "%SiemensSeq%\\ep2d_pace",
  "ReceiveCoilActiveElements": "HC1-7",
  "ReceiveCoilName": "HeadNeck_64",
  "ReconMatrixPE": 70,
  "RefLinesPE": 24,
  "RepetitionTime": 2,
  "SAR": 0.137675,
  "ScanOptions": "FS",
  "ScanningSequence": "EP",
  "SequenceName": "*epfid2d1_70",
  "SequenceVariant": "SK",
  "SeriesDescription": "BOLD_ep2d_3x3x3_dimension1",
  "SeriesNumber": 6,
  "ShimSetting": [5037, 3712, 4386, 503, -152, -249, -300, 92],
  "SliceThickness": 3,
  "SliceTiming": [0.99, 0, 1.0375, 0.0475, 1.085, 0.095, 1.13, 0.14, 1.1775, 0.1875, 1.225, 0.235, 1.2725, 0.2825, 1.32, 0.33, 1.3675, 0.3775, 1.415, 0.425, 1.46, 0.47, 1.5075, 0.5175, 1.555, 0.565, 1.6025, 0.6125, 1.65, 0.66, 1.6975, 0.7075, 1.745, 0.755, 1.79, 0.8, 1.8375, 0.8475, 1.885, 0.895, 1.9325, 0.9425],
  "SoftwareVersions": "syngo MR E11",
  "SpacingBetweenSlices": 3,
  "StationName": "AWP66061",
  "TaskName": "dimension",
  "TotalReadoutTime": 0.018975,
  "TxRefAmp": 231.459,
  "dcmmeta_affine": [
    [-2.999887466430664, -0.003664909629151225, 0.025732850655913353, 104.6957015991211],
    [-0.008336259983479977, 2.948794364929199, -0.5518540740013123, -89.85323333740234],
    [0.024619461968541145, 0.5519048571586609, 2.9486937522888184, -69.75399780273438],
    [0.0, 0.0, 0.0, 1.0]
],
  "dcmmeta_reorient_transform": [
    [0.0, -1.0, 0.0, 69.0],
    [1.0, 0.0, 0.0, 0.0],
    [0.0, 0.0, -1.0, 41.0],
    [0.0, 0.0, 0.0, 1.0]
],
  "dcmmeta_shape": [70, 70, 42, 437],
  "dcmmeta_slice_dim": 2,
  "dcmmeta_version": 0.6,
  "global": {
    "const": {
      "AcquisitionMatrix": [70, 0, 0, 70],
      "AngioFlag": "N",
      "BitsAllocated": 16,
      "BitsStored": 12,
      "BodyPartExamined": "HEAD",
      "Columns": 490,
      "EchoNumbers": 1,
      "EchoTime": 22.0,
      "EchoTrainLength": 35,
      "FlipAngle": 90.0,
      "HighBit": 11,
      "ImageOrientationPatient": [0.99996246534216, 0.00277875342488, 0.00820648744745, -0.0012216365284, 0.98293142161815, -0.1839682798743],
      "ImagePositionPatient": [-734.7045884475, -711.98496140657, 199.95381544399],
      "ImageType": [
        "ORIGINAL",
        "PRIMARY",
        "M",
        "ND",
        "NORM",
        "MOSAIC"
],
      "ImagedNucleus": "1H",
      "ImagingFrequency": 123.254553,
      "InPlanePhaseEncodingDirection": "COL",
      "MRAcquisitionType": "2D",
      "MagneticFieldStrength": 3.0,
      "Manufacturer": "SIEMENS",
      "ManufacturerModelName": "Prisma",
      "Modality": "MR",
      "NumberOfAverages": 1.0,
      "NumberOfPhaseEncodingSteps": 70,
      "PercentPhaseFieldOfView": 100.0,
      "PercentSampling": 100.0,
      "PerformedProcedureStepStartTime": "125327.772000",
      "PhotometricInterpretation": "MONOCHROME2",
      "PixelBandwidth": 2165.0,
      "PixelRepresentation": 0,
      "PixelSpacing": [3.0, 3.0],
      "ProtocolName": "BOLD_ep2d_3x3x3_dimension1",
      "RepetitionTime": 2000.0,
      "Rows": 490,
      "SAR": 0.13767457368355,
      "SamplesPerPixel": 1,
      "ScanOptions": "FS",
      "ScanningSequence": "EP",
      "SequenceName": "*epfid2d1_70",
      "SequenceVariant": "SK",
      "SeriesDescription": "BOLD_ep2d_3x3x3_dimension1",
      "SeriesNumber": 6,
      "SeriesTime": "131817.958000",
      "SliceLocation": 71.865609848936,
      "SliceThickness": 3.0,
      "SmallestImagePixelValue": 0,
      "SoftwareVersions": "syngo MR E11",
      "SpacingBetweenSlices": 3.0000000459373,
      "SpecificCharacterSet": "ISO_IR 100",
      "StudyID": "1",
      "StudyTime": "125327.701000",
      "TransmitCoilName": "Body",
      "VariableFlipAngleFlag": "N",
      "WindowCenterWidthExplanation": "Algo1",
      "dBdt": 0.0},
    "slices": {}
  },
  "time": {
    "samples": {
      "AcquisitionNumber": [1, 2, 3, 4, 5, 6, 7, 8, 9, 10, 11, 12, 13, 14, 15, 16, 17, 18, 19, 20, 21, 22, 23, 24, 25, 26, 27, 28, 29, 30, 31, 32, 33, 34, 35, 36, 37, 38, 39, 40, 41, 42, 43, 44, 45, 46, 47, 48, 49, 50, 51, 52, 53, 54, 55, 56, 57, 58, 59, 60, 61, 62, 63, 64, 65, 66, 67, 68, 69, 70, 71, 72, 73, 74, 75, 76, 77, 78, 79, 80, 81, 82, 83, 84, 85, 86, 87, 88, 89, 90, 91, 92, 93, 94, 95, 96, 97, 98, 99, 100, 101, 102, 103, 104, 105, 106, 107, 108, 109, 110, 111, 112, 113, 114, 115, 116, 117, 118, 119, 120, 121, 122, 123, 124, 125, 126, 127, 128, 129, 130, 131, 132, 133, 134, 135, 136, 137, 138, 139, 140, 141, 142, 143, 144, 145, 146, 147, 148, 149, 150, 151, 152, 153, 154, 155, 156, 157, 158, 159, 160, 161, 162, 163, 164, 165, 166, 167, 168, 169, 170, 171, 172, 173, 174, 175, 176, 177, 178, 179, 180, 181, 182, 183, 184, 185, 186, 187, 188, 189, 190, 191, 192, 193, 194, 195, 196, 197, 198, 199, 200, 201, 202, 203, 204, 205, 206, 207, 208, 209, 210, 211, 212, 213, 214, 215, 216, 217, 218, 219, 220, 221, 222, 223, 224, 225, 226, 227, 228, 229, 230, 231, 232, 233, 234, 235, 236, 237, 238, 239, 240, 241, 242, 243, 244, 245, 246, 247, 248, 249, 250, 251, 252, 253, 254, 255, 256, 257, 258, 259, 260, 261, 262, 263, 264, 265, 266, 267, 268, 269, 270, 271, 272, 273, 274, 275, 276, 277, 278, 279, 280, 281, 282, 283, 284, 285, 286, 287, 288, 289, 290, 291, 292, 293, 294, 295, 296, 297, 298, 299, 300, 301, 302, 303, 304, 305, 306, 307, 308, 309, 310, 311, 312, 313, 314, 315, 316, 317, 318, 319, 320, 321, 322, 323, 324, 325, 326, 327, 328, 329, 330, 331, 332, 333, 334, 335, 336, 337, 338, 339, 340, 341, 342, 343, 344, 345, 346, 347, 348, 349, 350, 351, 352, 353, 354, 355, 356, 357, 358, 359, 360, 361, 362, 363, 364, 365, 366, 367, 368, 369, 370, 371, 372, 373, 374, 375, 376, 377, 378, 379, 380, 381, 382, 383, 384, 385, 386, 387, 388, 389, 390, 391, 392, 393, 394, 395, 396, 397, 398, 399, 400, 401, 402, 403, 404, 405, 406, 407, 408, 409, 410, 411, 412, 413, 414, 415, 416, 417, 418, 419, 420, 421, 422, 423, 424, 425, 426, 427, 428, 429, 430, 431, 432, 433, 434, 435, 436, 437],
      "AcquisitionTime": ["131759.307500", "131801.307500", "131803.307500", "131805.307500", "131807.307500", "131809.307500", "131811.307500", "131813.307500", "131815.307500", "131817.307500", "131819.307500", "131821.307500", "131823.307500", "131825.307500", "131827.307500", "131829.307500", "131831.307500", "131833.307500", "131835.307500", "131837.307500", "131839.307500", "131841.307500", "131843.307500", "131845.307500", "131847.307500", "131849.307500", "131851.307500", "131853.307500", "131855.307500", "131857.307500", "131859.307500", "131901.307500", "131903.307500", "131905.307500", "131907.307500", "131909.307500", "131911.307500", "131913.307500", "131915.307500", "131917.307500", "131919.307500", "131921.307500", "131923.307500", "131925.307500", "131927.307500", "131929.307500", "131931.307500", "131933.307500", "131935.307500", "131937.307500", "131939.307500", "131941.307500", "131943.307500", "131945.307500", "131947.307500", "131949.307500", "131951.307500", "131953.307500", "131955.307500", "131957.307500", "131959.307500", "132001.307500", "132003.307500", "132005.307500", "132007.307500", "132009.307500", "132011.307500", "132013.307500", "132015.307500", "132017.307500", "132019.307500", "132021.307500", "132023.307500", "132025.307500", "132027.307500", "132029.307500", "132031.307500", "132033.307500", "132035.307500", "132037.307500", "132039.307500", "132041.307500", "132043.307500", "132045.307500", "132047.307500", "132049.307500", "132051.307500", "132053.307500", "132055.307500", "132057.307500", "132059.307500", "132101.307500", "132103.307500", "132105.307500", "132107.307500", "132109.307500", "132111.307500", "132113.307500", "132115.307500", "132117.307500", "132119.307500", "132121.307500", "132123.307500", "132125.307500", "132127.307500", "132129.307500", "132131.307500", "132133.307500", "132135.307500", "132137.307500", "132139.307500", "132141.307500", "132143.307500", "132145.307500", "132147.307500", "132149.307500", "132151.307500", "132153.307500", "132155.307500", "132157.307500", "132159.307500", "132201.307500", "132203.307500", "132205.307500", "132207.307500", "132209.307500", "132211.307500", "132213.307500", "132215.307500", "132217.307500", "132219.307500", "132221.307500", "132223.307500", "132225.307500", "132227.307500", "132229.307500", "132231.307500", "132233.307500", "132235.307500", "132237.307500", "132239.307500", "132241.307500", "132243.307500", "132245.307500", "132247.307500", "132249.307500", "132251.307500", "132253.307500", "132255.307500", "132257.307500", "132259.307500", "132301.307500", "132303.307500", "132305.307500", "132307.307500", "132309.307500", "132311.307500", "132313.307500", "132315.307500", "132317.307500", "132319.307500", "132321.307500", "132323.307500", "132325.307500", "132327.307500", "132329.307500", "132331.307500", "132333.307500", "132335.307500", "132337.307500", "132339.307500", "132341.307500", "132343.307500", "132345.307500", "132347.307500", "132349.307500", "132351.307500", "132353.307500", "132355.307500", "132357.307500", "132359.307500", "132401.307500", "132403.307500", "132405.307500", "132407.307500", "132409.307500", "132411.307500", "132413.307500", "132415.307500", "132417.307500", "132419.307500", "132421.307500", "132423.307500", "132425.307500", "132427.307500", "132429.307500", "132431.307500", "132433.307500", "132435.307500", "132437.307500", "132439.307500", "132441.307500", "132443.307500", "132445.307500", "132447.307500", "132449.307500", "132451.307500", "132453.307500", "132455.307500", "132457.307500", "132459.307500", "132501.307500", "132503.307500", "132505.307500", "132507.307500", "132509.307500", "132511.307500", "132513.307500", "132515.307500", "132517.307500", "132519.307500", "132521.307500", "132523.307500", "132525.307500", "132527.307500", "132529.307500", "132531.307500", "132533.307500", "132535.307500", "132537.307500", "132539.307500", "132541.307500", "132543.307500", "132545.307500", "132547.307500", "132549.307500", "132551.307500", "132553.307500", "132555.307500", "132557.307500", "132559.307500", "132601.307500", "132603.307500", "132605.307500", "132607.307500", "132609.307500", "132611.307500", "132613.307500", "132615.307500", "132617.307500", "132619.307500", "132621.307500", "132623.307500", "132625.307500", "132627.307500", "132629.307500", "132631.307500", "132633.307500", "132635.307500", "132637.307500", "132639.307500", "132641.307500", "132643.307500", "132645.307500", "132647.307500", "132649.307500", "132651.307500", "132653.307500", "132655.307500", "132657.307500", "132659.307500", "132701.307500", "132703.307500", "132705.307500", "132707.307500", "132709.307500", "132711.307500", "132713.307500", "132715.307500", "132717.307500", "132719.307500", "132721.307500", "132723.307500", "132725.307500", "132727.307500", "132729.307500", "132731.307500", "132733.307500", "132735.307500", "132737.307500", "132739.307500", "132741.307500", "132743.307500", "132745.307500", "132747.307500", "132749.307500", "132751.307500", "132753.307500", "132755.307500", "132757.307500", "132759.307500", "132801.307500", "132803.307500", "132805.307500", "132807.307500", "132809.307500", "132811.307500", "132813.307500", "132815.307500", "132817.307500", "132819.307500", "132821.307500", "132823.307500", "132825.307500", "132827.307500", "132829.307500", "132831.307500", "132833.307500", "132835.307500", "132837.307500", "132839.307500", "132841.307500", "132843.307500", "132845.307500", "132847.307500", "132849.307500", "132851.307500", "132853.307500", "132855.307500", "132857.307500", "132859.307500", "132901.307500", "132903.307500", "132905.307500", "132907.307500", "132909.307500", "132911.307500", "132913.307500", "132915.307500", "132917.307500", "132919.307500", "132921.307500", "132923.307500", "132925.307500", "132927.307500", "132929.307500", "132931.307500", "132933.307500", "132935.307500", "132937.307500", "132939.307500", "132941.307500", "132943.307500", "132945.307500", "132947.307500", "132949.307500", "132951.307500", "132953.307500", "132955.307500", "132957.307500", "132959.307500", "133001.307500", "133003.307500", "133005.307500", "133007.307500", "133009.307500", "133011.307500", "133013.307500", "133015.307500", "133017.307500", "133019.307500", "133021.307500", "133023.307500", "133025.307500", "133027.307500", "133029.307500", "133031.307500", "133033.307500", "133035.307500", "133037.307500", "133039.307500", "133041.307500", "133043.307500", "133045.307500", "133047.307500", "133049.307500", "133051.307500", "133053.307500", "133055.307500", "133057.307500", "133059.307500", "133101.307500", "133103.307500", "133105.307500", "133107.307500", "133109.307500", "133111.307500", "133113.307500", "133115.307500", "133117.307500", "133119.307500", "133121.307500", "133123.307500", "133125.307500", "133127.307500", "133129.307500", "133131.307500", "133133.307500", "133135.307500", "133137.307500", "133139.307500", "133141.307500", "133143.307500", "133145.307500", "133147.307500", "133149.307500", "133151.307500", "133153.307500", "133155.307500", "133157.307500", "133159.307500", "133201.307500", "133203.307500", "133205.307500", "133207.307500", "133209.307500", "133211.307500", "133213.307500", "133215.307500", "133217.307500", "133219.307500", "133221.307500", "133223.307500", "133225.307500", "133227.307500", "133229.307500", "133231.307500"],
      "ContentTime": ["131817.961000", "131817.965000", "131817.968000", "131817.982000", "131817.985000", "131817.988000", "131817.990000", "131817.993000", "131817.996000", "131857.957000", "131857.960000", "131857.963000", "131857.965000", "131857.968000", "131857.971000", "131857.974000", "131857.976000", "131857.979000", "131857.982000", "131857.985000", "131857.987000", "131857.990000", "131857.993000", "131857.996000", "131857.998000", "131858.002000", "131858.005000", "131858.008000", "131858.019000", "131937.957000", "131937.960000", "131937.962000", "131937.965000", "131937.968000", "131937.971000", "131937.974000", "131937.976000", "131937.979000", "131937.982000", "131937.985000", "131937.987000", "131937.990000", "131937.993000", "131937.996000", "131938.003000", "131938.006000", "131938.009000", "131938.011000", "131938.014000", "132017.957000", "132017.960000", "132017.962000", "132017.965000", "132017.968000", "132017.971000", "132017.973000", "132017.976000", "132017.979000", "132017.982000", "132017.984000", "132017.987000", "132017.990000", "132017.993000", "132017.996000", "132017.998000", "132018.002000", "132018.005000", "132018.008000", "132018.011000", "132057.958000", "132057.961000", "132057.963000", "132057.966000", "132057.969000", "132057.972000", "132057.975000", "132057.977000", "132057.980000", "132057.983000", "132057.986000", "132057.988000", "132057.991000", "132057.994000", "132057.997000", "132058.007000", "132058.010000", "132058.012000", "132058.015000", "132058.018000", "132137.957000", "132137.960000", "132137.962000", "132137.965000", "132137.968000", "132137.971000", "132137.973000", "132137.976000", "132137.979000", "132137.982000", "132137.985000", "132137.987000", "132137.990000", "132137.993000", "132137.996000", "132137.998000", "132138.002000", "132138.005000", "132138.008000", "132138.010000", "132217.957000", "132217.960000", "132217.963000", "132217.965000", "132217.968000", "132217.971000", "132217.974000", "132217.977000", "132217.979000", "132217.982000", "132217.985000", "132217.988000", "132217.990000", "132217.993000", "132217.996000", "132218.000000", "132218.002000", "132218.005000", "132218.008000", "132218.011000", "132257.957000", "132257.960000", "132257.963000", "132257.965000", "132257.968000", "132257.971000", "132257.974000", "132257.976000", "132257.979000", "132257.982000", "132257.985000", "132257.988000", "132257.990000", "132257.993000", "132257.996000", "132258.000000", "132258.002000", "132258.005000", "132258.008000", "132258.011000", "132337.957000", "132337.960000", "132337.963000", "132337.965000", "132337.968000", "132337.971000", "132337.974000", "132337.977000", "132337.979000", "132337.982000", "132337.985000", "132337.988000", "132337.990000", "132337.993000", "132337.996000", "132338.000000", "132338.003000", "132338.006000", "132338.008000", "132338.011000", "132417.957000", "132417.960000", "132417.963000", "132417.965000", "132417.968000", "132417.971000", "132417.982000", "132417.985000", "132417.988000", "132417.991000", "132417.993000", "132417.996000", "132418.000000", "132418.003000", "132418.005000", "132418.008000", "132418.011000", "132418.014000", "132418.016000", "132418.019000", "132457.957000", "132457.960000", "132457.963000", "132457.965000", "132457.968000", "132457.971000", "132457.974000", "132457.976000", "132457.979000", "132457.982000", "132457.985000", "132457.988000", "132457.990000", "132457.993000", "132457.996000", "132458.000000", "132458.002000", "132458.005000", "132458.008000", "132458.011000", "132537.958000", "132537.961000", "132537.963000", "132537.966000", "132537.969000", "132537.972000", "132537.974000", "132537.977000", "132537.980000", "132537.983000", "132537.986000", "132537.989000", "132537.991000", "132537.994000", "132537.997000", "132538.001000", "132538.003000", "132538.006000", "132538.009000", "132538.012000", "132617.957000", "132617.960000", "132617.963000", "132617.965000", "132617.968000", "132617.971000", "132617.974000", "132617.976000", "132617.979000", "132617.982000", "132617.985000", "132617.988000", "132617.990000", "132617.993000", "132617.996000", "132618.000000", "132618.002000", "132618.005000", "132618.008000", "132618.011000", "132657.957000", "132657.960000", "132657.963000", "132657.965000", "132657.968000", "132657.971000", "132657.974000", "132657.995000", "132657.997000", "132658.001000", "132658.004000", "132658.007000", "132658.010000", "132658.012000", "132658.015000", "132658.018000", "132658.021000", "132658.023000", "132658.026000", "132658.029000", "132717.957000", "132717.960000", "132717.963000", "132717.966000", "132717.968000", "132717.971000", "132717.974000", "132717.977000", "132717.979000", "132717.982000", "132757.958000", "132757.961000", "132757.964000", "132757.966000", "132757.969000", "132757.972000", "132757.975000", "132757.978000", "132757.980000", "132757.983000", "132757.986000", "132757.989000", "132757.992000", "132757.994000", "132757.997000", "132758.001000", "132758.004000", "132758.006000", "132758.009000", "132758.012000", "132837.957000", "132837.960000", "132837.963000", "132837.965000", "132837.968000", "132837.971000", "132837.974000", "132837.977000", "132837.979000", "132837.982000", "132837.985000", "132837.988000", "132837.990000", "132837.993000", "132837.996000", "132838.000000", "132838.003000", "132838.005000", "132838.008000", "132838.011000", "132917.957000", "132917.960000", "132917.963000", "132917.966000", "132917.968000", "132917.971000", "132917.974000", "132917.977000", "132917.980000", "132917.982000", "132917.985000", "132917.988000", "132917.991000", "132917.993000", "132917.996000", "132918.000000", "132918.003000", "132918.005000", "132918.008000", "132918.011000", "132957.958000", "132957.973000", "132957.976000", "132957.979000", "132957.982000", "132957.984000", "132957.987000", "132957.990000", "132957.993000", "132957.996000", "132957.998000", "132958.001000", "132958.004000", "132958.007000", "132958.010000", "132958.012000", "132958.015000", "132958.018000", "132958.021000", "132958.024000", "133037.957000", "133037.960000", "133037.962000", "133037.965000", "133037.968000", "133037.971000", "133037.974000", "133037.976000", "133037.979000", "133037.982000", "133037.985000", "133037.988000", "133037.990000", "133037.993000", "133037.996000", "133038.000000", "133038.003000", "133038.005000", "133038.008000", "133038.011000", "133117.957000", "133117.960000", "133117.963000", "133117.965000", "133117.968000", "133117.971000", "133117.974000", "133117.977000", "133117.979000", "133117.982000", "133117.985000", "133117.988000", "133117.991000", "133117.993000", "133117.996000", "133118.000000", "133118.003000", "133118.010000", "133118.012000", "133118.015000", "133157.957000", "133157.960000", "133157.963000", "133157.966000", "133157.968000", "133157.971000", "133157.974000", "133157.978000", "133157.981000", "133157.984000", "133157.986000", "133157.989000", "133157.992000", "133157.995000", "133157.997000", "133158.001000", "133158.004000", "133158.007000", "133158.010000", "133158.012000", "133232.422000", "133232.425000", "133232.428000", "133232.431000", "133232.433000", "133232.436000", "133232.439000", "133232.442000", "133232.445000", "133232.448000", "133232.451000", "133232.459000", "133232.463000", "133232.466000", "133232.470000", "133232.476000", "133232.480000", "133232.483000"],
      "DataSetTrailingPadding": [
        "\u0000\u0000\u0000\u0000\u0000\u0000\u0000\u0000\u0000\u0000\u0000\u0000\u0000\u0000\u0000\u0000\u0000\u0000\u0000\u0000\u0000\u0000\u0000\u0000\u0000\u0000\u0000\u0000\u0000\u0000\u0000\u0000\u0000\u0000\u0000\u0000\u0000\u0000\u0000\u0000\u0000\u0000\u0000\u0000\u0000\u0000\u0000\u0000\u0000\u0000\u0000\u0000\u0000\u0000\u0000\u0000\u0000\u0000\u0000\u0000\u0000\u0000\u0000\u0000\u0000\u0000\u0000\u0000\u0000\u0000\u0000\u0000\u0000\u0000\u0000\u0000\u0000\u0000\u0000\u0000\u0000\u0000\u0000\u0000\u0000\u0000\u0000\u0000\u0000\u0000\u0000\u0000\u0000\u0000\u0000\u0000\u0000\u0000\u0000\u0000\u0000\u0000\u0000\u0000\u0000\u0000\u0000\u0000\u0000\u0000\u0000\u0000\u0000\u0000\u0000\u0000\u0000\u0000\u0000\u0000\u0000\u0000\u0000\u0000\u0000\u0000\u0000\u0000\u0000\u0000\u0000\u0000\u0000\u0000\u0000\u0000\u0000\u0000\u0000\u0000\u0000\u0000\u0000\u0000\u0000\u0000\u0000\u0000\u0000\u0000\u0000\u0000\u0000\u0000\u0000\u0000\u0000\u0000\u0000\u0000\u0000\u0000\u0000\u0000\u0000\u0000\u0000\u0000\u0000\u0000\u0000\u0000\u0000\u0000\u0000\u0000\u0000\u0000\u0000\u0000\u0000\u0000\u0000\u0000\u0000\u0000\u0000\u0000\u0000\u0000\u0000\u0000\u0000\u0000\u0000\u0000\u0000\u0000\u0000\u0000\u0000\u0000\u0000\u0000\u0000\u0000\u0000\u0000\u0000\u0000\u0000\u0000\u0000\u0000\u0000\u0000\u0000\u0000\u0000\u0000\u0000\u0000\u0000\u0000\u0000\u0000\u0000\u0000\u0000\u0000\u0000\u0000\u0000\u0000\u0000\u0000\u0000\u0000\u0000\u0000\u0000\u0000\u0000\u0000\u0000\u0000\u0000\u0000\u0000\u0000\u0000\u0000\u0000\u0000\u0000\u0000\u0000\u0000\u0000\u0000\u0000\u0000\u0000\u0000\u0000\u0000\u0000\u0000\u0000\u0000\u0000\u0000",
        "\u0000\u0000\u0000\u0000\u0000\u0000\u0000\u0000\u0000\u0000\u0000\u0000\u0000\u0000\u0000\u0000\u0000\u0000\u0000\u0000\u0000\u0000\u0000\u0000\u0000\u0000\u0000\u0000\u0000\u0000\u0000\u0000\u0000\u0000\u0000\u0000\u0000\u0000\u0000\u0000\u0000\u0000\u0000\u0000\u0000\u0000\u0000\u0000\u0000\u0000\u0000\u0000\u0000\u0000\u0000\u0000\u0000\u0000\u0000\u0000\u0000\u0000\u0000\u0000\u0000\u0000\u0000\u0000\u0000\u0000\u0000\u0000\u0000\u0000\u0000\u0000\u0000\u0000\u0000\u0000\u0000\u0000\u0000\u0000\u0000\u0000\u0000\u0000\u0000\u0000\u0000\u0000\u0000\u0000\u0000\u0000\u0000\u0000\u0000\u0000\u0000\u0000\u0000\u0000\u0000\u0000\u0000\u0000\u0000\u0000\u0000\u0000\u0000\u0000\u0000\u0000\u0000\u0000\u0000\u0000\u0000\u0000\u0000\u0000\u0000\u0000\u0000\u0000\u0000\u0000\u0000\u0000\u0000\u0000\u0000\u0000\u0000\u0000\u0000\u0000\u0000\u0000\u0000\u0000\u0000\u0000\u0000\u0000\u0000\u0000\u0000\u0000\u0000\u0000\u0000\u0000\u0000\u0000\u0000\u0000\u0000\u0000\u0000\u0000\u0000\u0000\u0000\u0000\u0000\u0000\u0000\u0000\u0000\u0000\u0000\u0000\u0000\u0000\u0000\u0000\u0000\u0000\u0000\u0000\u0000\u0000\u0000\u0000\u0000\u0000\u0000\u0000\u0000\u0000\u0000\u0000\u0000\u0000\u0000\u0000\u0000\u0000\u0000\u0000\u0000\u0000\u0000\u0000\u0000\u0000\u0000\u0000\u0000\u0000\u0000\u0000\u0000\u0000\u0000\u0000\u0000\u0000\u0000\u0000\u0000\u0000\u0000\u0000\u0000\u0000\u0000\u0000\u0000\u0000\u0000\u0000\u0000\u0000\u0000\u0000\u0000\u0000\u0000\u0000\u0000\u0000\u0000\u0000\u0000\u0000\u0000\u0000\u0000\u0000\u0000\u0000\u0000\u0000\u0000\u0000\u0000\u0000\u0000\u0000\u0000\u0000\u0000\u0000\u0000\u0000",
        "\u0000\u0000\u0000\u0000\u0000\u0000\u0000\u0000\u0000\u0000\u0000\u0000\u0000\u0000\u0000\u0000\u0000\u0000\u0000\u0000\u0000\u0000\u0000\u0000\u0000\u0000\u0000\u0000\u0000\u0000\u0000\u0000\u0000\u0000\u0000\u0000\u0000\u0000\u0000\u0000\u0000\u0000\u0000\u0000\u0000\u0000\u0000\u0000\u0000\u0000\u0000\u0000\u0000\u0000\u0000\u0000\u0000\u0000\u0000\u0000\u0000\u0000\u0000\u0000\u0000\u0000\u0000\u0000\u0000\u0000\u0000\u0000\u0000\u0000\u0000\u0000\u0000\u0000\u0000\u0000\u0000\u0000\u0000\u0000\u0000\u0000\u0000\u0000\u0000\u0000\u0000\u0000\u0000\u0000\u0000\u0000\u0000\u0000\u0000\u0000\u0000\u0000\u0000\u0000\u0000\u0000\u0000\u0000\u0000\u0000\u0000\u0000\u0000\u0000\u0000\u0000\u0000\u0000\u0000\u0000\u0000\u0000\u0000\u0000\u0000\u0000\u0000\u0000\u0000\u0000\u0000\u0000\u0000\u0000\u0000\u0000\u0000\u0000\u0000\u0000\u0000\u0000\u0000\u0000\u0000\u0000\u0000\u0000\u0000\u0000\u0000\u0000\u0000\u0000\u0000\u0000\u0000\u0000\u0000\u0000\u0000\u0000\u0000\u0000\u0000\u0000\u0000\u0000\u0000\u0000\u0000\u0000\u0000\u0000\u0000\u0000\u0000\u0000\u0000\u0000\u0000\u0000\u0000\u0000\u0000\u0000\u0000\u0000\u0000\u0000\u0000\u0000\u0000\u0000\u0000\u0000\u0000\u0000\u0000\u0000\u0000\u0000\u0000\u0000\u0000\u0000\u0000\u0000\u0000\u0000\u0000\u0000\u0000\u0000\u0000\u0000\u0000\u0000\u0000\u0000\u0000\u0000\u0000\u0000\u0000\u0000\u0000\u0000\u0000\u0000\u0000\u0000\u0000\u0000\u0000\u0000\u0000\u0000\u0000\u0000\u0000\u0000\u0000\u0000\u0000\u0000\u0000\u0000\u0000\u0000\u0000\u0000\u0000\u0000\u0000\u0000\u0000\u0000\u0000\u0000\u0000\u0000\u0000\u0000\u0000\u0000\u0000\u0000\u0000\u0000",
        "\u0000\u0000\u0000\u0000\u0000\u0000\u0000\u0000\u0000\u0000\u0000\u0000\u0000\u0000\u0000\u0000\u0000\u0000\u0000\u0000\u0000\u0000\u0000\u0000\u0000\u0000\u0000\u0000\u0000\u0000\u0000\u0000\u0000\u0000\u0000\u0000\u0000\u0000\u0000\u0000\u0000\u0000\u0000\u0000\u0000\u0000\u0000\u0000\u0000\u0000\u0000\u0000\u0000\u0000\u0000\u0000\u0000\u0000\u0000\u0000\u0000\u0000\u0000\u0000\u0000\u0000\u0000\u0000\u0000\u0000\u0000\u0000\u0000\u0000\u0000\u0000\u0000\u0000\u0000\u0000\u0000\u0000\u0000\u0000\u0000\u0000\u0000\u0000\u0000\u0000\u0000\u0000\u0000\u0000\u0000\u0000\u0000\u0000\u0000\u0000\u0000\u0000\u0000\u0000\u0000\u0000\u0000\u0000\u0000\u0000\u0000\u0000\u0000\u0000\u0000\u0000\u0000\u0000\u0000\u0000\u0000\u0000\u0000\u0000\u0000\u0000\u0000\u0000\u0000\u0000\u0000\u0000\u0000\u0000\u0000\u0000\u0000\u0000\u0000\u0000\u0000\u0000\u0000\u0000\u0000\u0000\u0000\u0000\u0000\u0000\u0000\u0000\u0000\u0000\u0000\u0000\u0000\u0000\u0000\u0000\u0000\u0000\u0000\u0000\u0000\u0000\u0000\u0000\u0000\u0000\u0000\u0000\u0000\u0000\u0000\u0000\u0000\u0000\u0000\u0000\u0000\u0000\u0000\u0000\u0000\u0000\u0000\u0000\u0000\u0000\u0000\u0000\u0000\u0000\u0000\u0000\u0000\u0000\u0000\u0000\u0000\u0000\u0000\u0000\u0000\u0000\u0000\u0000\u0000\u0000\u0000\u0000\u0000\u0000\u0000\u0000\u0000\u0000\u0000\u0000\u0000\u0000\u0000\u0000\u0000\u0000\u0000\u0000\u0000\u0000\u0000\u0000\u0000\u0000\u0000\u0000\u0000\u0000\u0000\u0000\u0000\u0000\u0000\u0000\u0000\u0000\u0000\u0000\u0000\u0000\u0000\u0000\u0000\u0000\u0000\u0000\u0000\u0000\u0000\u0000\u0000\u0000\u0000\u0000\u0000\u0000\u0000\u0000\u0000\u0000",
