{
  "AcquisitionMatrixPE": 70,
  "AcquisitionNumber": 1,
  "AcquisitionTime": "10:15:26.142500",
  "BandwidthPerPixelPhaseEncode": 51.948,
  "BaseResolution": 70,
  "BodyPartExamined": "HEAD",
  "CoilCombinationMethod": "Sum of Squares",
  "ConsistencyInfo": "N4_VE11C_LATEST_20160120",
  "ConversionSoftware": "dcm2niix",
  "ConversionSoftwareVersion": "v1.0.20220720",
  "DerivedVendorReportedEchoSpacing": 0.000550001,
  "DeviceSerialNumber": "66061",
  "DwellTime": 3.3e-06,
  "EchoTime": 0.022,
  "EchoTrainLength": 35,
  "EffectiveEchoSpacing": 0.000275,
  "FlipAngle": 90,
  "HeudiconvVersion": "1.1.1",
  "ImageOrientationPatientDICOM": [0.999523, 0.00845008, 0.029721, -0.00122116, 0.97193, -0.235265],
  "ImageOrientationText": "Tra>Cor(-13.6)>Sag(1.8)",
  "ImageType": [
    "ORIGINAL",
    "PRIMARY",
    "M",
    "ND",
    "NORM",
    "MOSAIC"
],
  "ImagingFrequency": 123.256,
  "InPlanePhaseEncodingDirectionDICOM": "COL",
  "InstitutionAddress": "Street StreetNo,City/1c4204/,District,KR,ZIP",
  "InstitutionName": "SKKU",
  "InstitutionalDepartmentName": "Department",
  "MRAcquisitionType": "2D",
  "MagneticFieldStrength": 3,
  "Manufacturer": "Siemens",
  "ManufacturersModelName": "Prisma",
  "MatrixCoilMode": "GRAPPA",
  "Modality": "MR",
  "NonlinearGradientCorrection": false,
  "ParallelReductionFactorInPlane": 2,
  "PartialFourier": 1,
  "PatientPosition": "HFS",
  "PercentPhaseFOV": 100,
  "PercentSampling": 100,
  "PhaseEncodingDirection": "j-",
  "PhaseEncodingSteps": 70,
  "PhaseResolution": 1,
  "PixelBandwidth": 2165,
  "ProcedureStepDescription": "Head^PI:Others",
  "ProtocolName": "BOLD_ep2d_3x3x3_dimension2",
  "PulseSequenceDetails": "%SiemensSeq%\\ep2d_pace",
  "ReceiveCoilActiveElements": "HC1-7",
  "ReceiveCoilName": "HeadNeck_64",
  "ReconMatrixPE": 70,
  "RefLinesPE": 24,
  "RepetitionTime": 2,
  "SAR": 0.127711,
  "ScanOptions": "FS",
  "ScanningSequence": "EP",
  "SequenceName": "*epfid2d1_70",
  "SequenceVariant": "SK",
  "SeriesDescription": "BOLD_ep2d_3x3x3_dimension2",
  "SeriesNumber": 5,
  "ShimSetting": [5058, 3759, 4467, 322, -61, -26, -43, 78],
  "SliceThickness": 3,
  "SliceTiming": [0.99, 0, 1.0375, 0.0475, 1.085, 0.095, 1.13, 0.14, 1.1775, 0.1875, 1.225, 0.235, 1.2725, 0.2825, 1.32, 0.33, 1.3675, 0.3775, 1.415, 0.425, 1.46, 0.47, 1.5075, 0.5175, 1.555, 0.565, 1.6025, 0.6125, 1.65, 0.66, 1.6975, 0.7075, 1.745, 0.755, 1.79, 0.8, 1.8375, 0.8475, 1.885, 0.895, 1.9325, 0.9425],
  "SoftwareVersions": "syngo MR E11",
  "SpacingBetweenSlices": 3,
  "StationName": "AWP66061",
  "TaskName": "dimension",
  "TotalReadoutTime": 0.018975,
  "TxRefAmp": 248.883,
  "dcmmeta_affine": [
    [-2.998567581176758, -0.0036634679418057203, 0.0926242470741272, 105.56661987304688],
    [-0.02535025030374527, 2.9157912731170654, -0.7053501605987549, -81.97317504882812],
    [0.08916298300027847, 0.7057960629463196, 2.9144299030303955, -63.2918701171875],
    [0.0, 0.0, 0.0, 1.0]
],
  "dcmmeta_reorient_transform": [
    [0.0, -1.0, 0.0, 69.0],
    [1.0, 0.0, 0.0, 0.0],
    [0.0, 0.0, -1.0, 41.0],
    [0.0, 0.0, 0.0, 1.0]
],
  "dcmmeta_shape": [70, 70, 42, 437],
  "dcmmeta_slice_dim": 2,
  "dcmmeta_version": 0.6,
  "global": {
    "const": {
      "AcquisitionMatrix": [70, 0, 0, 70],
      "AngioFlag": "N",
      "BitsAllocated": 16,
      "BitsStored": 12,
      "BodyPartExamined": "HEAD",
      "Columns": 490,
      "EchoNumbers": 1,
      "EchoTime": 22.0,
      "EchoTrainLength": 35,
      "FlipAngle": 90.0,
      "HighBit": 11,
      "ImageOrientationPatient": [0.99952251531167, 0.00845008361483, 0.02972099379126, -0.0012211559838, 0.97193040847789, -0.2352653605061],
      "ImagePositionPatient": [-738.04129116682, -707.93677075798, 234.39263730641],
      "ImageType": [
        "ORIGINAL",
        "PRIMARY",
        "M",
        "ND",
        "NORM",
        "MOSAIC"
],
      "ImagedNucleus": "1H",
      "ImagingFrequency": 123.255785,
      "InPlanePhaseEncodingDirection": "COL",
      "MRAcquisitionType": "2D",
      "MagneticFieldStrength": 3.0,
      "Manufacturer": "SIEMENS",
      "ManufacturerModelName": "Prisma",
      "Modality": "MR",
      "NumberOfAverages": 1.0,
      "NumberOfPhaseEncodingSteps": 70,
      "PercentPhaseFieldOfView": 100.0,
      "PercentSampling": 100.0,
      "PerformedProcedureStepStartTime": "093809.002000",
      "PhotometricInterpretation": "MONOCHROME2",
      "PixelBandwidth": 2165.0,
      "PixelRepresentation": 0,
      "PixelSpacing": [3.0, 3.0],
      "ProtocolName": "BOLD_ep2d_3x3x3_dimension2",
      "RepetitionTime": 2000.0,
      "Rows": 490,
      "SAR": 0.12771067620412,
      "SamplesPerPixel": 1,
      "ScanOptions": "FS",
      "ScanningSequence": "EP",
      "SequenceName": "*epfid2d1_70",
      "SequenceVariant": "SK",
      "SeriesDescription": "BOLD_ep2d_3x3x3_dimension2",
      "SeriesNumber": 5,
      "SeriesTime": "101610.783000",
      "SliceLocation": 84.046033827709,
      "SliceThickness": 3.0,
      "SmallestImagePixelValue": 0,
      "SoftwareVersions": "syngo MR E11",
      "SpacingBetweenSlices": 2.9999999806703,
      "SpecificCharacterSet": "ISO_IR 100",
      "StudyID": "1",
      "StudyTime": "093808.936000",
      "TransmitCoilName": "Body",
      "VariableFlipAngleFlag": "N",
      "WindowCenterWidthExplanation": "Algo1",
      "dBdt": 0.0},
    "slices": {}
  },
  "time": {
    "samples": {
      "AcquisitionNumber": [1, 2, 3, 4, 5, 6, 7, 8, 9, 10, 11, 12, 13, 14, 15, 16, 17, 18, 19, 20, 21, 22, 23, 24, 25, 26, 27, 28, 29, 30, 31, 32, 33, 34, 35, 36, 37, 38, 39, 40, 41, 42, 43, 44, 45, 46, 47, 48, 49, 50, 51, 52, 53, 54, 55, 56, 57, 58, 59, 60, 61, 62, 63, 64, 65, 66, 67, 68, 69, 70, 71, 72, 73, 74, 75, 76, 77, 78, 79, 80, 81, 82, 83, 84, 85, 86, 87, 88, 89, 90, 91, 92, 93, 94, 95, 96, 97, 98, 99, 100, 101, 102, 103, 104, 105, 106, 107, 108, 109, 110, 111, 112, 113, 114, 115, 116, 117, 118, 119, 120, 121, 122, 123, 124, 125, 126, 127, 128, 129, 130, 131, 132, 133, 134, 135, 136, 137, 138, 139, 140, 141, 142, 143, 144, 145, 146, 147, 148, 149, 150, 151, 152, 153, 154, 155, 156, 157, 158, 159, 160, 161, 162, 163, 164, 165, 166, 167, 168, 169, 170, 171, 172, 173, 174, 175, 176, 177, 178, 179, 180, 181, 182, 183, 184, 185, 186, 187, 188, 189, 190, 191, 192, 193, 194, 195, 196, 197, 198, 199, 200, 201, 202, 203, 204, 205, 206, 207, 208, 209, 210, 211, 212, 213, 214, 215, 216, 217, 218, 219, 220, 221, 222, 223, 224, 225, 226, 227, 228, 229, 230, 231, 232, 233, 234, 235, 236, 237, 238, 239, 240, 241, 242, 243, 244, 245, 246, 247, 248, 249, 250, 251, 252, 253, 254, 255, 256, 257, 258, 259, 260, 261, 262, 263, 264, 265, 266, 267, 268, 269, 270, 271, 272, 273, 274, 275, 276, 277, 278, 279, 280, 281, 282, 283, 284, 285, 286, 287, 288, 289, 290, 291, 292, 293, 294, 295, 296, 297, 298, 299, 300, 301, 302, 303, 304, 305, 306, 307, 308, 309, 310, 311, 312, 313, 314, 315, 316, 317, 318, 319, 320, 321, 322, 323, 324, 325, 326, 327, 328, 329, 330, 331, 332, 333, 334, 335, 336, 337, 338, 339, 340, 341, 342, 343, 344, 345, 346, 347, 348, 349, 350, 351, 352, 353, 354, 355, 356, 357, 358, 359, 360, 361, 362, 363, 364, 365, 366, 367, 368, 369, 370, 371, 372, 373, 374, 375, 376, 377, 378, 379, 380, 381, 382, 383, 384, 385, 386, 387, 388, 389, 390, 391, 392, 393, 394, 395, 396, 397, 398, 399, 400, 401, 402, 403, 404, 405, 406, 407, 408, 409, 410, 411, 412, 413, 414, 415, 416, 417, 418, 419, 420, 421, 422, 423, 424, 425, 426, 427, 428, 429, 430, 431, 432, 433, 434, 435, 436, 437],
      "AcquisitionTime": ["101526.142500", "101528.142500", "101530.142500", "101532.142500", "101534.142500", "101536.142500", "101538.142500", "101540.142500", "101542.142500", "101544.142500", "101546.142500", "101548.142500", "101550.142500", "101552.142500", "101554.142500", "101556.142500", "101558.142500", "101600.142500", "101602.142500", "101604.142500", "101606.142500", "101608.142500", "101610.142500", "101612.142500", "101614.142500", "101616.142500", "101618.142500", "101620.142500", "101622.142500", "101624.142500", "101626.142500", "101628.142500", "101630.142500", "101632.142500", "101634.142500", "101636.142500", "101638.142500", "101640.142500", "101642.142500", "101644.142500", "101646.142500", "101648.142500", "101650.142500", "101652.142500", "101654.142500", "101656.142500", "101658.142500", "101700.142500", "101702.142500", "101704.142500", "101706.142500", "101708.142500", "101710.142500", "101712.142500", "101714.142500", "101716.142500", "101718.142500", "101720.142500", "101722.142500", "101724.142500", "101726.142500", "101728.142500", "101730.142500", "101732.142500", "101734.142500", "101736.142500", "101738.142500", "101740.142500", "101742.142500", "101744.142500", "101746.142500", "101748.142500", "101750.142500", "101752.142500", "101754.142500", "101756.142500", "101758.142500", "101800.142500", "101802.142500", "101804.142500", "101806.142500", "101808.142500", "101810.142500", "101812.142500", "101814.142500", "101816.142500", "101818.142500", "101820.142500", "101822.142500", "101824.142500", "101826.142500", "101828.142500", "101830.142500", "101832.142500", "101834.142500", "101836.142500", "101838.142500", "101840.142500", "101842.142500", "101844.142500", "101846.142500", "101848.142500", "101850.142500", "101852.142500", "101854.142500", "101856.142500", "101858.142500", "101900.142500", "101902.142500", "101904.142500", "101906.142500", "101908.142500", "101910.142500", "101912.142500", "101914.142500", "101916.142500", "101918.142500", "101920.142500", "101922.142500", "101924.142500", "101926.142500", "101928.142500", "101930.142500", "101932.142500", "101934.142500", "101936.142500", "101938.142500", "101940.142500", "101942.142500", "101944.142500", "101946.142500", "101948.142500", "101950.142500", "101952.142500", "101954.142500", "101956.142500", "101958.142500", "102000.142500", "102002.142500", "102004.142500", "102006.142500", "102008.142500", "102010.142500", "102012.142500", "102014.142500", "102016.142500", "102018.142500", "102020.142500", "102022.142500", "102024.142500", "102026.142500", "102028.142500", "102030.142500", "102032.142500", "102034.142500", "102036.142500", "102038.142500", "102040.142500", "102042.142500", "102044.142500", "102046.142500", "102048.142500", "102050.142500", "102052.142500", "102054.142500", "102056.142500", "102058.142500", "102100.142500", "102102.142500", "102104.142500", "102106.142500", "102108.142500", "102110.142500", "102112.142500", "102114.142500", "102116.142500", "102118.142500", "102120.142500", "102122.142500", "102124.142500", "102126.142500", "102128.142500", "102130.142500", "102132.142500", "102134.142500", "102136.142500", "102138.142500", "102140.142500", "102142.142500", "102144.142500", "102146.142500", "102148.142500", "102150.142500", "102152.142500", "102154.142500", "102156.142500", "102158.142500", "102200.142500", "102202.142500", "102204.142500", "102206.142500", "102208.142500", "102210.142500", "102212.142500", "102214.142500", "102216.142500", "102218.142500", "102220.142500", "102222.142500", "102224.142500", "102226.142500", "102228.142500", "102230.142500", "102232.142500", "102234.142500", "102236.142500", "102238.142500", "102240.142500", "102242.142500", "102244.142500", "102246.142500", "102248.142500", "102250.142500", "102252.142500", "102254.142500", "102256.142500", "102258.142500", "102300.142500", "102302.142500", "102304.142500", "102306.142500", "102308.142500", "102310.142500", "102312.142500", "102314.142500", "102316.142500", "102318.142500", "102320.142500", "102322.142500", "102324.142500", "102326.142500", "102328.142500", "102330.142500", "102332.142500", "102334.142500", "102336.142500", "102338.142500", "102340.142500", "102342.142500", "102344.142500", "102346.142500", "102348.142500", "102350.142500", "102352.142500", "102354.142500", "102356.142500", "102358.142500", "102400.142500", "102402.142500", "102404.142500", "102406.142500", "102408.142500", "102410.142500", "102412.142500", "102414.142500", "102416.142500", "102418.142500", "102420.142500", "102422.142500", "102424.142500", "102426.142500", "102428.142500", "102430.142500", "102432.142500", "102434.142500", "102436.142500", "102438.142500", "102440.142500", "102442.142500", "102444.142500", "102446.142500", "102448.142500", "102450.142500", "102452.142500", "102454.142500", "102456.142500", "102458.142500", "102500.142500", "102502.142500", "102504.142500", "102506.142500", "102508.142500", "102510.142500", "102512.142500", "102514.142500", "102516.142500", "102518.142500", "102520.142500", "102522.142500", "102524.142500", "102526.142500", "102528.142500", "102530.142500", "102532.142500", "102534.142500", "102536.142500", "102538.142500", "102540.142500", "102542.142500", "102544.142500", "102546.142500", "102548.142500", "102550.142500", "102552.142500", "102554.142500", "102556.142500", "102558.142500", "102600.142500", "102602.142500", "102604.142500", "102606.142500", "102608.142500", "102610.142500", "102612.142500", "102614.142500", "102616.142500", "102618.142500", "102620.142500", "102622.142500", "102624.142500", "102626.142500", "102628.142500", "102630.142500", "102632.142500", "102634.142500", "102636.142500", "102638.142500", "102640.142500", "102642.142500", "102644.142500", "102646.142500", "102648.142500", "102650.142500", "102652.142500", "102654.142500", "102656.142500", "102658.142500", "102700.142500", "102702.142500", "102704.142500", "102706.142500", "102708.142500", "102710.142500", "102712.142500", "102714.142500", "102716.142500", "102718.142500", "102720.142500", "102722.142500", "102724.142500", "102726.142500", "102728.142500", "102730.142500", "102732.142500", "102734.142500", "102736.142500", "102738.142500", "102740.142500", "102742.142500", "102744.142500", "102746.142500", "102748.142500", "102750.142500", "102752.142500", "102754.142500", "102756.142500", "102758.142500", "102800.142500", "102802.142500", "102804.142500", "102806.142500", "102808.142500", "102810.142500", "102812.142500", "102814.142500", "102816.142500", "102818.142500", "102820.142500", "102822.142500", "102824.142500", "102826.142500", "102828.142500", "102830.142500", "102832.142500", "102834.142500", "102836.142500", "102838.142500", "102840.142500", "102842.142500", "102844.142500", "102846.142500", "102848.142500", "102850.142500", "102852.142500", "102854.142500", "102856.142500", "102858.142500", "102900.142500", "102902.142500", "102904.142500", "102906.142500", "102908.142500", "102910.142500", "102912.142500", "102914.142500", "102916.142500", "102918.142500", "102920.142500", "102922.142500", "102924.142500", "102926.142500", "102928.142500", "102930.142500", "102932.142500", "102934.142500", "102936.142500", "102938.142500", "102940.142500", "102942.142500", "102944.142500", "102946.142500", "102948.142500", "102950.142500", "102952.142500", "102954.142500", "102956.142500", "102958.142500"],
      "ContentTime": ["101610.786000", "101610.790000", "101610.801000", "101610.804000", "101610.806000", "101610.809000", "101610.812000", "101610.814000", "101610.817000", "101610.819000", "101610.822000", "101610.825000", "101610.827000", "101610.830000", "101610.833000", "101610.835000", "101610.838000", "101610.840000", "101610.843000", "101610.846000", "101610.848000", "101610.851000", "101650.781000", "101650.784000", "101650.787000", "101650.790000", "101650.792000", "101650.795000", "101650.798000", "101650.800000", "101650.803000", "101650.806000", "101650.808000", "101650.811000", "101650.814000", "101650.816000", "101650.819000", "101650.821000", "101650.824000", "101650.834000", "101650.836000", "101650.839000", "101730.781000", "101730.783000", "101730.786000", "101730.789000", "101730.791000", "101730.803000", "101730.805000", "101730.808000", "101730.810000", "101730.813000", "101730.816000", "101730.818000", "101730.821000", "101730.824000", "101730.826000", "101730.836000", "101730.838000", "101730.841000", "101730.844000", "101730.846000", "101810.781000", "101810.784000", "101810.787000", "101810.790000", "101810.792000", "101810.795000", "101810.798000", "101810.800000", "101810.803000", "101810.806000", "101810.808000", "101810.811000", "101810.814000", "101810.816000", "101810.819000", "101810.822000", "101810.829000", "101810.831000", "101810.834000", "101810.837000", "101850.782000", "101850.784000", "101850.787000", "101850.790000", "101850.792000", "101850.795000", "101850.798000", "101850.800000", "101850.803000", "101850.805000", "101850.808000", "101850.811000", "101850.814000", "101850.816000", "101850.819000", "101850.827000", "101850.829000", "101850.832000", "101850.835000", "101850.837000", "101930.781000", "101930.784000", "101930.793000", "101930.795000", "101930.798000", "101930.801000", "101930.803000", "101930.806000", "101930.809000", "101930.811000", "101930.814000", "101930.817000", "101930.819000", "101930.822000", "101930.824000", "101930.834000", "101930.837000", "101930.839000", "101930.842000", "101930.845000", "102010.780000", "102010.784000", "102010.786000", "102010.789000", "102010.792000", "102010.795000", "102010.797000", "102010.800000", "102010.803000", "102010.805000", "102010.808000", "102010.810000", "102010.813000", "102010.816000", "102010.819000", "102010.821000", "102010.824000", "102010.827000", "102010.829000", "102010.832000", "102030.782000", "102030.785000", "102030.787000", "102030.790000", "102030.793000", "102030.795000", "102030.798000", "102030.801000", "102030.803000", "102030.806000", "102110.781000", "102110.784000", "102110.787000", "102110.790000", "102110.792000", "102110.795000", "102110.798000", "102110.800000", "102110.803000", "102110.806000", "102110.808000", "102110.811000", "102110.814000", "102110.817000", "102110.819000", "102110.822000", "102110.825000", "102110.827000", "102110.830000", "102110.833000", "102150.781000", "102150.783000", "102150.786000", "102150.789000", "102150.792000", "102150.794000", "102150.797000", "102150.800000", "102150.802000", "102150.805000", "102150.808000", "102150.810000", "102150.813000", "102150.816000", "102150.818000", "102150.821000", "102150.824000", "102150.826000", "102150.829000", "102150.832000", "102230.780000", "102230.783000", "102230.786000", "102230.789000", "102230.791000", "102230.794000", "102230.797000", "102230.800000", "102230.802000", "102230.805000", "102230.808000", "102230.810000", "102230.813000", "102230.816000", "102230.818000", "102230.821000", "102230.824000", "102230.826000", "102230.829000", "102230.832000", "102310.782000", "102310.785000", "102310.787000", "102310.790000", "102310.792000", "102310.795000", "102310.798000", "102310.801000", "102310.803000", "102310.806000", "102310.809000", "102310.811000", "102310.814000", "102310.817000", "102310.819000", "102310.822000", "102310.825000", "102310.827000", "102310.830000", "102310.833000", "102350.782000", "102350.784000", "102350.787000", "102350.790000", "102350.793000", "102350.795000", "102350.798000", "102350.801000", "102350.803000", "102350.806000", "102350.809000", "102350.812000", "102350.814000", "102350.817000", "102350.820000", "102350.822000", "102350.825000", "102350.828000", "102350.830000", "102350.833000", "102430.781000", "102430.783000", "102430.786000", "102430.804000", "102430.806000", "102430.809000", "102430.812000", "102430.815000", "102430.826000", "102430.828000", "102430.831000", "102430.834000", "102430.836000", "102430.839000", "102430.842000", "102430.845000", "102430.847000", "102430.850000", "102430.853000", "102430.855000", "102510.782000", "102510.785000", "102510.787000", "102510.790000", "102510.793000", "102510.795000", "102510.798000", "102510.801000", "102510.803000", "102510.806000", "102510.809000", "102510.812000", "102510.814000", "102510.817000", "102510.820000", "102510.822000", "102510.825000", "102510.828000", "102510.831000", "102510.833000", "102550.782000", "102550.785000", "102550.787000", "102550.790000", "102550.793000", "102550.796000", "102550.798000", "102550.801000", "102550.804000", "102550.806000", "102550.809000", "102550.812000", "102550.814000", "102550.817000", "102550.820000", "102550.822000", "102550.825000", "102550.828000", "102550.830000", "102550.833000", "102630.781000", "102630.784000", "102630.786000", "102630.789000", "102630.792000", "102630.794000", "102630.797000", "102630.800000", "102630.802000", "102630.805000", "102630.808000", "102630.810000", "102630.813000", "102630.816000", "102630.818000", "102630.821000", "102630.824000", "102630.826000", "102630.829000", "102630.832000", "102710.781000", "102710.783000", "102710.786000", "102710.789000", "102710.792000", "102710.794000", "102710.797000", "102710.800000", "102710.803000", "102710.805000", "102710.808000", "102710.811000", "102710.813000", "102710.816000", "102710.819000", "102710.821000", "102710.824000", "102710.827000", "102710.830000", "102710.832000", "102750.782000", "102750.785000", "102750.787000", "102750.790000", "102750.793000", "102750.795000", "102750.798000", "102750.801000", "102750.803000", "102750.806000", "102750.809000", "102750.811000", "102750.814000", "102750.817000", "102750.819000", "102750.822000", "102750.825000", "102750.828000", "102750.830000", "102750.833000", "102830.782000", "102830.784000", "102830.787000", "102830.790000", "102830.793000", "102830.795000", "102830.798000", "102830.801000", "102830.803000", "102830.806000", "102830.808000", "102830.811000", "102830.814000", "102830.816000", "102830.819000", "102830.822000", "102830.824000", "102830.835000", "102830.838000", "102830.840000", "102910.781000", "102910.783000", "102910.786000", "102910.789000", "102910.792000", "102910.794000", "102910.797000", "102910.800000", "102910.802000", "102910.805000", "102910.807000", "102910.810000", "102910.813000", "102910.815000", "102910.818000", "102910.821000", "102910.823000", "102910.826000", "102910.829000", "102910.839000", "102950.782000", "102950.785000", "102950.787000", "102950.790000", "102950.792000", "102950.795000", "102950.798000", "102950.800000", "102950.803000", "102950.806000", "102950.808000", "102950.811000", "102950.814000", "102950.817000", "102950.819000", "102950.822000", "102950.825000", "102950.827000", "102950.830000", "102950.833000", "102959.549000", "102959.552000", "102959.554000", "102959.557000", "102959.560000"],
      "DataSetTrailingPadding": [
        "\u0000\u0000\u0000\u0000\u0000\u0000\u0000\u0000\u0000\u0000\u0000\u0000\u0000\u0000\u0000\u0000\u0000\u0000\u0000\u0000\u0000\u0000\u0000\u0000\u0000\u0000\u0000\u0000\u0000\u0000\u0000\u0000\u0000\u0000\u0000\u0000\u0000\u0000\u0000\u0000\u0000\u0000\u0000\u0000\u0000\u0000\u0000\u0000\u0000\u0000\u0000\u0000\u0000\u0000\u0000\u0000\u0000\u0000\u0000\u0000\u0000\u0000\u0000\u0000\u0000\u0000\u0000\u0000\u0000\u0000\u0000\u0000\u0000\u0000\u0000\u0000\u0000\u0000\u0000\u0000\u0000\u0000\u0000\u0000\u0000\u0000\u0000\u0000\u0000\u0000\u0000\u0000\u0000\u0000\u0000\u0000\u0000\u0000\u0000\u0000\u0000\u0000\u0000\u0000\u0000\u0000\u0000\u0000\u0000\u0000\u0000\u0000\u0000\u0000\u0000\u0000\u0000\u0000\u0000\u0000\u0000\u0000\u0000\u0000\u0000\u0000\u0000\u0000\u0000\u0000\u0000\u0000\u0000\u0000\u0000\u0000\u0000\u0000\u0000\u0000\u0000\u0000\u0000\u0000\u0000\u0000\u0000\u0000\u0000\u0000\u0000\u0000\u0000\u0000\u0000\u0000\u0000\u0000\u0000\u0000\u0000\u0000\u0000\u0000\u0000\u0000\u0000\u0000\u0000\u0000\u0000\u0000\u0000\u0000\u0000\u0000\u0000\u0000\u0000\u0000\u0000\u0000\u0000\u0000\u0000\u0000\u0000\u0000\u0000\u0000\u0000\u0000\u0000\u0000\u0000\u0000\u0000\u0000\u0000\u0000\u0000\u0000\u0000\u0000\u0000\u0000\u0000\u0000\u0000\u0000\u0000\u0000\u0000\u0000\u0000\u0000\u0000\u0000\u0000\u0000\u0000\u0000\u0000\u0000\u0000\u0000\u0000\u0000\u0000\u0000\u0000\u0000\u0000\u0000\u0000\u0000\u0000\u0000\u0000\u0000\u0000\u0000\u0000\u0000\u0000\u0000\u0000\u0000\u0000\u0000\u0000\u0000\u0000\u0000\u0000\u0000\u0000\u0000\u0000\u0000\u0000\u0000\u0000\u0000\u0000\u0000\u0000\u0000\u0000\u0000\u0000\u0000\u0000\u0000\u0000\u0000\u0000\u0000\u0000\u0000\u0000\u0000\u0000\u0000\u0000\u0000\u0000\u0000\u0000\u0000\u0000\u0000\u0000\u0000\u0000\u0000\u0000\u0000\u0000\u0000\u0000\u0000\u0000\u0000\u0000\u0000\u0000\u0000\u0000\u0000\u0000\u0000\u0000\u0000\u0000\u0000\u0000\u0000\u0000\u0000\u0000\u0000\u0000\u0000\u0000\u0000\u0000\u0000\u0000\u0000\u0000\u0000\u0000\u0000\u0000\u0000\u0000\u0000\u0000\u0000\u0000\u0000\u0000\u0000\u0000\u0000\u0000\u0000",
        "\u0000\u0000\u0000\u0000\u0000\u0000\u0000\u0000\u0000\u0000\u0000\u0000\u0000\u0000\u0000\u0000\u0000\u0000\u0000\u0000\u0000\u0000\u0000\u0000\u0000\u0000\u0000\u0000\u0000\u0000\u0000\u0000\u0000\u0000\u0000\u0000\u0000\u0000\u0000\u0000\u0000\u0000\u0000\u0000\u0000\u0000\u0000\u0000\u0000\u0000\u0000\u0000\u0000\u0000\u0000\u0000\u0000\u0000\u0000\u0000\u0000\u0000\u0000\u0000\u0000\u0000\u0000\u0000\u0000\u0000\u0000\u0000\u0000\u0000\u0000\u0000\u0000\u0000\u0000\u0000\u0000\u0000\u0000\u0000\u0000\u0000\u0000\u0000\u0000\u0000\u0000\u0000\u0000\u0000\u0000\u0000\u0000\u0000\u0000\u0000\u0000\u0000\u0000\u0000\u0000\u0000\u0000\u0000\u0000\u0000\u0000\u0000\u0000\u0000\u0000\u0000\u0000\u0000\u0000\u0000\u0000\u0000\u0000\u0000\u0000\u0000\u0000\u0000\u0000\u0000\u0000\u0000\u0000\u0000\u0000\u0000\u0000\u0000\u0000\u0000\u0000\u0000\u0000\u0000\u0000\u0000\u0000\u0000\u0000\u0000\u0000\u0000\u0000\u0000\u0000\u0000\u0000\u0000\u0000\u0000\u0000\u0000\u0000\u0000\u0000\u0000\u0000\u0000\u0000\u0000\u0000\u0000\u0000\u0000\u0000\u0000\u0000\u0000\u0000\u0000\u0000\u0000\u0000\u0000\u0000\u0000\u0000\u0000\u0000\u0000\u0000\u0000\u0000\u0000\u0000\u0000\u0000\u0000\u0000\u0000\u0000\u0000\u0000\u0000\u0000\u0000\u0000\u0000\u0000\u0000\u0000\u0000\u0000\u0000\u0000\u0000\u0000\u0000\u0000\u0000\u0000\u0000\u0000\u0000\u0000\u0000\u0000\u0000\u0000\u0000\u0000\u0000\u0000\u0000\u0000\u0000\u0000\u0000\u0000\u0000\u0000\u0000\u0000\u0000\u0000\u0000\u0000\u0000\u0000\u0000\u0000\u0000\u0000\u0000\u0000\u0000\u0000\u0000\u0000\u0000\u0000\u0000\u0000\u0000\u0000\u0000\u0000\u0000\u0000\u0000\u0000\u0000\u0000\u0000\u0000\u0000\u0000\u0000\u0000\u0000\u0000\u0000\u0000\u0000\u0000\u0000\u0000\u0000\u0000\u0000\u0000\u0000\u0000\u0000\u0000\u0000\u0000\u0000\u0000\u0000\u0000\u0000\u0000\u0000\u0000\u0000\u0000\u0000\u0000\u0000\u0000\u0000\u0000\u0000\u0000\u0000\u0000\u0000\u0000\u0000\u0000\u0000\u0000\u0000\u0000\u0000\u0000\u0000\u0000\u0000\u0000\u0000\u0000\u0000\u0000\u0000\u0000\u0000\u0000\u0000\u0000\u0000\u0000\u0000\u0000\u0000",
        "\u0000\u0000\u0000\u0000\u0000\u0000\u0000\u0000\u0000\u0000\u0000\u0000\u0000\u0000\u0000\u0000\u0000\u0000\u0000\u0000\u0000\u0000\u0000\u0000\u0000\u0000\u0000\u0000\u0000\u0000\u0000\u0000\u0000\u0000\u0000\u0000\u0000\u0000\u0000\u0000\u0000\u0000\u0000\u0000\u0000\u0000\u0000\u0000\u0000\u0000\u0000\u0000\u0000\u0000\u0000\u0000\u0000\u0000\u0000\u0000\u0000\u0000\u0000\u0000\u0000\u0000\u0000\u0000\u0000\u0000\u0000\u0000\u0000\u0000\u0000\u0000\u0000\u0000\u0000\u0000\u0000\u0000\u0000\u0000\u0000\u0000\u0000\u0000\u0000\u0000\u0000\u0000\u0000\u0000\u0000\u0000\u0000\u0000\u0000\u0000\u0000\u0000\u0000\u0000\u0000\u0000\u0000\u0000\u0000\u0000\u0000\u0000\u0000\u0000\u0000\u0000\u0000\u0000\u0000\u0000\u0000\u0000\u0000\u0000\u0000\u0000\u0000\u0000\u0000\u0000\u0000\u0000\u0000\u0000\u0000\u0000\u0000\u0000\u0000\u0000\u0000\u0000\u0000\u0000\u0000\u0000\u0000\u0000\u0000\u0000\u0000\u0000\u0000\u0000\u0000\u0000\u0000\u0000\u0000\u0000\u0000\u0000\u0000\u0000\u0000\u0000\u0000\u0000\u0000\u0000\u0000\u0000\u0000\u0000\u0000\u0000\u0000\u0000\u0000\u0000\u0000\u0000\u0000\u0000\u0000\u0000\u0000\u0000\u0000\u0000\u0000\u0000\u0000\u0000\u0000\u0000\u0000\u0000\u0000\u0000\u0000\u0000\u0000\u0000\u0000\u0000\u0000\u0000\u0000\u0000\u0000\u0000\u0000\u0000\u0000\u0000\u0000\u0000\u0000\u0000\u0000\u0000\u0000\u0000\u0000\u0000\u0000\u0000\u0000\u0000\u0000\u0000\u0000\u0000\u0000\u0000\u0000\u0000\u0000\u0000\u0000\u0000\u0000\u0000\u0000\u0000\u0000\u0000\u0000\u0000\u0000\u0000\u0000\u0000\u0000\u0000\u0000\u0000\u0000\u0000\u0000\u0000\u0000\u0000\u0000\u0000\u0000\u0000\u0000\u0000\u0000\u0000\u0000\u0000\u0000\u0000\u0000\u0000\u0000\u0000\u0000\u0000\u0000\u0000\u0000\u0000\u0000\u0000\u0000\u0000\u0000\u0000\u0000\u0000\u0000\u0000\u0000\u0000\u0000\u0000\u0000\u0000\u0000\u0000\u0000\u0000\u0000\u0000\u0000\u0000\u0000\u0000\u0000\u0000\u0000\u0000\u0000\u0000\u0000\u0000\u0000\u0000\u0000\u0000\u0000\u0000\u0000\u0000\u0000\u0000\u0000\u0000\u0000\u0000\u0000\u0000\u0000\u0000\u0000\u0000\u0000\u0000\u0000\u0000\u0000\u0000",
