{
  "AcquisitionMatrixPE": 70,
  "AcquisitionNumber": 1,
  "AcquisitionTime": "14:01:56.125000",
  "BandwidthPerPixelPhaseEncode": 51.948,
  "BaseResolution": 70,
  "BodyPartExamined": "HEAD",
  "CoilCombinationMethod": "Sum of Squares",
  "ConsistencyInfo": "N4_VE11C_LATEST_20160120",
  "ConversionSoftware": "dcm2niix",
  "ConversionSoftwareVersion": "v1.0.20220720",
  "DerivedVendorReportedEchoSpacing": 0.000550001,
  "DeviceSerialNumber": "66061",
  "DwellTime": 3.3e-06,
  "EchoTime": 0.022,
  "EchoTrainLength": 35,
  "EffectiveEchoSpacing": 0.000275,
  "FlipAngle": 90,
  "HeudiconvVersion": "1.1.1",
  "ImageOrientationPatientDICOM": [0.997283, 0.0131474, 0.0724856, -0.00121836, 0.986755, -0.162214],
  "ImageOrientationText": "Tra>Cor(-9.3)>Sag(4.2)",
  "ImageType": [
    "ORIGINAL",
    "PRIMARY",
    "M",
    "ND",
    "NORM",
    "MOSAIC"
],
  "ImagingFrequency": 123.254,
  "InPlanePhaseEncodingDirectionDICOM": "COL",
  "InstitutionAddress": "Street StreetNo,City/1c4204/,District,KR,ZIP",
  "InstitutionName": "SKKU",
  "InstitutionalDepartmentName": "Department",
  "MRAcquisitionType": "2D",
  "MagneticFieldStrength": 3,
  "Manufacturer": "Siemens",
  "ManufacturersModelName": "Prisma",
  "MatrixCoilMode": "GRAPPA",
  "Modality": "MR",
  "NonlinearGradientCorrection": false,
  "ParallelReductionFactorInPlane": 2,
  "PartialFourier": 1,
  "PatientPosition": "HFS",
  "PercentPhaseFOV": 100,
  "PercentSampling": 100,
  "PhaseEncodingDirection": "j-",
  "PhaseEncodingSteps": 70,
  "PhaseResolution": 1,
  "PixelBandwidth": 2165,
  "ProcedureStepDescription": "Head^PI:Others",
  "ProtocolName": "BOLD_ep2d_3x3x3_dimension2",
  "PulseSequenceDetails": "%SiemensSeq%\\ep2d_pace",
  "ReceiveCoilActiveElements": "HC1-7",
  "ReceiveCoilName": "HeadNeck_64",
  "ReconMatrixPE": 70,
  "RefLinesPE": 24,
  "RepetitionTime": 2,
  "SAR": 0.141983,
  "ScanOptions": "FS",
  "ScanningSequence": "EP",
  "SequenceName": "*epfid2d1_70",
  "SequenceVariant": "SK",
  "SeriesDescription": "BOLD_ep2d_3x3x3_dimension2",
  "SeriesNumber": 10,
  "ShimSetting": [5061, 3728, 4442, 372, -104, -121, 64, 1],
  "SliceThickness": 3,
  "SliceTiming": [0.99, 0, 1.0375, 0.0475, 1.0825, 0.0925, 1.13, 0.14, 1.1775, 0.1875, 1.225, 0.235, 1.2725, 0.2825, 1.32, 0.33, 1.3675, 0.3775, 1.4125, 0.4225, 1.46, 0.47, 1.5075, 0.5175, 1.555, 0.565, 1.6025, 0.6125, 1.65, 0.66, 1.6975, 0.7075, 1.7425, 0.7525, 1.79, 0.8, 1.8375, 0.8475, 1.885, 0.895, 1.9325, 0.9425],
  "SoftwareVersions": "syngo MR E11",
  "SpacingBetweenSlices": 3,
  "StationName": "AWP66061",
  "TaskName": "dimension",
  "TotalReadoutTime": 0.018975,
  "TxRefAmp": 242.194,
  "dcmmeta_affine": [
    [-2.9918484687805176, -0.003655070438981056, 0.22097453474998474, 105.46110534667969],
    [-0.03944217041134834, 2.9602644443511963, -0.48505598306655884, -83.30455780029297],
    [0.21745671331882477, 0.4866432249546051, 2.9522688388824463, -74.97348022460938],
    [0.0, 0.0, 0.0, 1.0]
],
  "dcmmeta_reorient_transform": [
    [0.0, -1.0, 0.0, 69.0],
    [1.0, 0.0, 0.0, 0.0],
    [0.0, 0.0, -1.0, 41.0],
    [0.0, 0.0, 0.0, 1.0]
],
  "dcmmeta_shape": [70, 70, 42, 437],
  "dcmmeta_slice_dim": 2,
  "dcmmeta_version": 0.6,
  "global": {
    "const": {
      "AcquisitionMatrix": [70, 0, 0, 70],
      "AngioFlag": "N",
      "BitsAllocated": 16,
      "BitsStored": 12,
      "BodyPartExamined": "HEAD",
      "Columns": 490,
      "EchoNumbers": 1,
      "EchoTime": 22.0,
      "EchoTrainLength": 35,
      "FlipAngle": 90.0,
      "HighBit": 11,
      "ImageOrientationPatient": [0.9972828025882, 0.01314739031271, 0.07248556952801, -0.0012183568173, 0.9867547823441, -0.1622144109742],
      "ImagePositionPatient": [-741.78945935458, -731.00475395956, 136.17709311629],
      "ImageType": [
        "ORIGINAL",
        "PRIMARY",
        "M",
        "ND",
        "NORM",
        "MOSAIC"
],
      "ImagedNucleus": "1H",
      "ImagingFrequency": 123.254406,
      "InPlanePhaseEncodingDirection": "COL",
      "MRAcquisitionType": "2D",
      "MagneticFieldStrength": 3.0,
      "Manufacturer": "SIEMENS",
      "ManufacturerModelName": "Prisma",
      "Modality": "MR",
      "NumberOfAverages": 1.0,
      "NumberOfPhaseEncodingSteps": 70,
      "PercentPhaseFieldOfView": 100.0,
      "PercentSampling": 100.0,
      "PerformedProcedureStepStartTime": "123554.365000",
      "PhotometricInterpretation": "MONOCHROME2",
      "PixelBandwidth": 2165.0,
      "PixelRepresentation": 0,
      "PixelSpacing": [3.0, 3.0],
      "ProtocolName": "BOLD_ep2d_3x3x3_dimension2",
      "RepetitionTime": 2000.0,
      "Rows": 490,
      "SAR": 0.14198300673207,
      "SamplesPerPixel": 1,
      "ScanOptions": "FS",
      "ScanningSequence": "EP",
      "SequenceName": "*epfid2d1_70",
      "SequenceVariant": "SK",
      "SeriesDescription": "BOLD_ep2d_3x3x3_dimension2",
      "SeriesNumber": 10,
      "SeriesTime": "140248.427000",
      "SliceLocation": 70.456576368555,
      "SliceThickness": 3.0,
      "SmallestImagePixelValue": 0,
      "SoftwareVersions": "syngo MR E11",
      "SpacingBetweenSlices": 3.000000051067,
      "SpecificCharacterSet": "ISO_IR 100",
      "StudyID": "1",
      "StudyTime": "123554.288000",
      "TransmitCoilName": "Body",
      "VariableFlipAngleFlag": "N",
      "WindowCenterWidthExplanation": "Algo1",
      "dBdt": 0.0},
    "slices": {}
  },
  "time": {
    "samples": {
      "AcquisitionNumber": [1, 2, 3, 4, 5, 6, 7, 8, 9, 10, 11, 12, 13, 14, 15, 16, 17, 18, 19, 20, 21, 22, 23, 24, 25, 26, 27, 28, 29, 30, 31, 32, 33, 34, 35, 36, 37, 38, 39, 40, 41, 42, 43, 44, 45, 46, 47, 48, 49, 50, 51, 52, 53, 54, 55, 56, 57, 58, 59, 60, 61, 62, 63, 64, 65, 66, 67, 68, 69, 70, 71, 72, 73, 74, 75, 76, 77, 78, 79, 80, 81, 82, 83, 84, 85, 86, 87, 88, 89, 90, 91, 92, 93, 94, 95, 96, 97, 98, 99, 100, 101, 102, 103, 104, 105, 106, 107, 108, 109, 110, 111, 112, 113, 114, 115, 116, 117, 118, 119, 120, 121, 122, 123, 124, 125, 126, 127, 128, 129, 130, 131, 132, 133, 134, 135, 136, 137, 138, 139, 140, 141, 142, 143, 144, 145, 146, 147, 148, 149, 150, 151, 152, 153, 154, 155, 156, 157, 158, 159, 160, 161, 162, 163, 164, 165, 166, 167, 168, 169, 170, 171, 172, 173, 174, 175, 176, 177, 178, 179, 180, 181, 182, 183, 184, 185, 186, 187, 188, 189, 190, 191, 192, 193, 194, 195, 196, 197, 198, 199, 200, 201, 202, 203, 204, 205, 206, 207, 208, 209, 210, 211, 212, 213, 214, 215, 216, 217, 218, 219, 220, 221, 222, 223, 224, 225, 226, 227, 228, 229, 230, 231, 232, 233, 234, 235, 236, 237, 238, 239, 240, 241, 242, 243, 244, 245, 246, 247, 248, 249, 250, 251, 252, 253, 254, 255, 256, 257, 258, 259, 260, 261, 262, 263, 264, 265, 266, 267, 268, 269, 270, 271, 272, 273, 274, 275, 276, 277, 278, 279, 280, 281, 282, 283, 284, 285, 286, 287, 288, 289, 290, 291, 292, 293, 294, 295, 296, 297, 298, 299, 300, 301, 302, 303, 304, 305, 306, 307, 308, 309, 310, 311, 312, 313, 314, 315, 316, 317, 318, 319, 320, 321, 322, 323, 324, 325, 326, 327, 328, 329, 330, 331, 332, 333, 334, 335, 336, 337, 338, 339, 340, 341, 342, 343, 344, 345, 346, 347, 348, 349, 350, 351, 352, 353, 354, 355, 356, 357, 358, 359, 360, 361, 362, 363, 364, 365, 366, 367, 368, 369, 370, 371, 372, 373, 374, 375, 376, 377, 378, 379, 380, 381, 382, 383, 384, 385, 386, 387, 388, 389, 390, 391, 392, 393, 394, 395, 396, 397, 398, 399, 400, 401, 402, 403, 404, 405, 406, 407, 408, 409, 410, 411, 412, 413, 414, 415, 416, 417, 418, 419, 420, 421, 422, 423, 424, 425, 426, 427, 428, 429, 430, 431, 432, 433, 434, 435, 436, 437],
      "AcquisitionTime": ["140156.125000", "140158.125000", "140200.125000", "140202.125000", "140204.125000", "140206.125000", "140208.125000", "140210.125000", "140212.125000", "140214.125000", "140216.125000", "140218.125000", "140220.125000", "140222.125000", "140224.125000", "140226.125000", "140228.125000", "140230.125000", "140232.125000", "140234.125000", "140236.125000", "140238.125000", "140240.125000", "140242.125000", "140244.125000", "140246.125000", "140248.125000", "140250.125000", "140252.125000", "140254.125000", "140256.125000", "140258.125000", "140300.125000", "140302.125000", "140304.125000", "140306.125000", "140308.125000", "140310.125000", "140312.125000", "140314.125000", "140316.125000", "140318.125000", "140320.125000", "140322.125000", "140324.125000", "140326.125000", "140328.125000", "140330.125000", "140332.125000", "140334.125000", "140336.125000", "140338.125000", "140340.125000", "140342.125000", "140344.125000", "140346.125000", "140348.125000", "140350.125000", "140352.125000", "140354.125000", "140356.125000", "140358.125000", "140400.125000", "140402.125000", "140404.125000", "140406.125000", "140408.125000", "140410.125000", "140412.125000", "140414.125000", "140416.125000", "140418.125000", "140420.125000", "140422.125000", "140424.125000", "140426.125000", "140428.125000", "140430.125000", "140432.125000", "140434.125000", "140436.125000", "140438.125000", "140440.125000", "140442.125000", "140444.125000", "140446.125000", "140448.125000", "140450.125000", "140452.125000", "140454.125000", "140456.125000", "140458.125000", "140500.125000", "140502.125000", "140504.125000", "140506.125000", "140508.125000", "140510.125000", "140512.125000", "140514.125000", "140516.125000", "140518.125000", "140520.125000", "140522.125000", "140524.125000", "140526.125000", "140528.125000", "140530.125000", "140532.125000", "140534.125000", "140536.125000", "140538.125000", "140540.125000", "140542.125000", "140544.125000", "140546.125000", "140548.125000", "140550.125000", "140552.125000", "140554.125000", "140556.125000", "140558.125000", "140600.125000", "140602.125000", "140604.125000", "140606.125000", "140608.125000", "140610.125000", "140612.125000", "140614.125000", "140616.125000", "140618.125000", "140620.125000", "140622.125000", "140624.125000", "140626.125000", "140628.125000", "140630.125000", "140632.125000", "140634.125000", "140636.125000", "140638.125000", "140640.125000", "140642.125000", "140644.125000", "140646.125000", "140648.125000", "140650.125000", "140652.125000", "140654.125000", "140656.125000", "140658.125000", "140700.125000", "140702.125000", "140704.125000", "140706.125000", "140708.125000", "140710.125000", "140712.125000", "140714.125000", "140716.125000", "140718.125000", "140720.125000", "140722.125000", "140724.125000", "140726.125000", "140728.125000", "140730.125000", "140732.125000", "140734.125000", "140736.125000", "140738.125000", "140740.125000", "140742.125000", "140744.125000", "140746.125000", "140748.125000", "140750.125000", "140752.125000", "140754.125000", "140756.125000", "140758.125000", "140800.125000", "140802.125000", "140804.125000", "140806.125000", "140808.125000", "140810.125000", "140812.125000", "140814.125000", "140816.125000", "140818.125000", "140820.125000", "140822.125000", "140824.125000", "140826.125000", "140828.125000", "140830.125000", "140832.125000", "140834.125000", "140836.125000", "140838.125000", "140840.125000", "140842.125000", "140844.125000", "140846.125000", "140848.125000", "140850.125000", "140852.125000", "140854.125000", "140856.125000", "140858.125000", "140900.125000", "140902.125000", "140904.125000", "140906.125000", "140908.125000", "140910.125000", "140912.125000", "140914.125000", "140916.125000", "140918.125000", "140920.125000", "140922.125000", "140924.125000", "140926.125000", "140928.125000", "140930.125000", "140932.125000", "140934.125000", "140936.125000", "140938.125000", "140940.125000", "140942.125000", "140944.125000", "140946.125000", "140948.125000", "140950.125000", "140952.125000", "140954.125000", "140956.125000", "140958.125000", "141000.125000", "141002.125000", "141004.125000", "141006.125000", "141008.125000", "141010.125000", "141012.125000", "141014.125000", "141016.125000", "141018.125000", "141020.125000", "141022.125000", "141024.125000", "141026.125000", "141028.125000", "141030.125000", "141032.125000", "141034.125000", "141036.125000", "141038.125000", "141040.125000", "141042.125000", "141044.125000", "141046.125000", "141048.125000", "141050.125000", "141052.125000", "141054.125000", "141056.125000", "141058.125000", "141100.125000", "141102.125000", "141104.125000", "141106.125000", "141108.125000", "141110.125000", "141112.125000", "141114.125000", "141116.125000", "141118.125000", "141120.125000", "141122.125000", "141124.125000", "141126.125000", "141128.125000", "141130.125000", "141132.125000", "141134.125000", "141136.125000", "141138.125000", "141140.125000", "141142.125000", "141144.125000", "141146.125000", "141148.125000", "141150.125000", "141152.125000", "141154.125000", "141156.125000", "141158.125000", "141200.125000", "141202.125000", "141204.125000", "141206.125000", "141208.125000", "141210.125000", "141212.125000", "141214.125000", "141216.125000", "141218.125000", "141220.125000", "141222.125000", "141224.125000", "141226.125000", "141228.125000", "141230.125000", "141232.125000", "141234.125000", "141236.125000", "141238.125000", "141240.125000", "141242.125000", "141244.125000", "141246.125000", "141248.125000", "141250.125000", "141252.125000", "141254.125000", "141256.125000", "141258.125000", "141300.125000", "141302.125000", "141304.125000", "141306.125000", "141308.125000", "141310.125000", "141312.125000", "141314.125000", "141316.125000", "141318.125000", "141320.125000", "141322.125000", "141324.125000", "141326.125000", "141328.125000", "141330.125000", "141332.125000", "141334.125000", "141336.125000", "141338.125000", "141340.125000", "141342.125000", "141344.125000", "141346.125000", "141348.125000", "141350.125000", "141352.125000", "141354.125000", "141356.125000", "141358.125000", "141400.125000", "141402.125000", "141404.125000", "141406.125000", "141408.125000", "141410.125000", "141412.125000", "141414.125000", "141416.125000", "141418.125000", "141420.125000", "141422.125000", "141424.125000", "141426.125000", "141428.125000", "141430.125000", "141432.125000", "141434.125000", "141436.125000", "141438.125000", "141440.125000", "141442.125000", "141444.125000", "141446.125000", "141448.125000", "141450.125000", "141452.125000", "141454.125000", "141456.125000", "141458.125000", "141500.125000", "141502.125000", "141504.125000", "141506.125000", "141508.125000", "141510.125000", "141512.125000", "141514.125000", "141516.125000", "141518.125000", "141520.125000", "141522.125000", "141524.125000", "141526.125000", "141528.125000", "141530.125000", "141532.125000", "141534.125000", "141536.125000", "141538.125000", "141540.125000", "141542.125000", "141544.125000", "141546.125000", "141548.125000", "141550.125000", "141552.125000", "141554.125000", "141556.125000", "141558.125000", "141600.125000", "141602.125000", "141604.125000", "141606.125000", "141608.125000", "141610.125000", "141612.125000", "141614.125000", "141616.125000", "141618.125000", "141620.125000", "141622.125000", "141624.125000", "141626.125000", "141628.125000"],
      "ContentTime": ["140248.431000", "140248.434000", "140248.437000", "140248.448000", "140248.451000", "140248.453000", "140248.456000", "140248.459000", "140248.462000", "140248.464000", "140248.472000", "140248.475000", "140248.478000", "140248.480000", "140248.483000", "140248.486000", "140248.489000", "140248.492000", "140248.494000", "140248.497000", "140248.500000", "140248.503000", "140248.505000", "140248.508000", "140248.511000", "140248.514000", "140328.427000", "140328.430000", "140328.433000", "140328.435000", "140328.443000", "140328.445000", "140328.448000", "140328.451000", "140328.454000", "140328.457000", "140328.459000", "140328.462000", "140328.465000", "140328.468000", "140328.471000", "140328.473000", "140328.476000", "140328.479000", "140328.482000", "140328.484000", "140408.426000", "140408.429000", "140408.432000", "140408.434000", "140408.437000", "140408.440000", "140408.443000", "140408.445000", "140408.448000", "140408.451000", "140408.454000", "140408.457000", "140408.459000", "140408.462000", "140408.465000", "140408.468000", "140408.471000", "140408.474000", "140408.476000", "140408.479000", "140448.426000", "140448.429000", "140448.432000", "140448.434000", "140448.437000", "140448.440000", "140448.443000", "140448.445000", "140448.448000", "140448.451000", "140448.454000", "140448.457000", "140448.459000", "140448.462000", "140448.465000", "140448.468000", "140448.471000", "140448.473000", "140448.476000", "140448.479000", "140528.426000", "140528.429000", "140528.432000", "140528.435000", "140528.437000", "140528.440000", "140528.443000", "140528.446000", "140528.448000", "140528.451000", "140528.454000", "140528.457000", "140528.460000", "140528.462000", "140528.465000", "140528.468000", "140528.471000", "140528.474000", "140528.476000", "140528.479000", "140608.426000", "140608.429000", "140608.432000", "140608.434000", "140608.437000", "140608.440000", "140608.443000", "140608.445000", "140608.448000", "140608.451000", "140608.454000", "140608.457000", "140608.459000", "140608.462000", "140608.465000", "140608.468000", "140608.470000", "140608.473000", "140608.476000", "140608.479000", "140648.426000", "140648.429000", "140648.432000", "140648.434000", "140648.437000", "140648.440000", "140648.443000", "140648.445000", "140648.448000", "140648.451000", "140648.470000", "140648.473000", "140648.476000", "140648.479000", "140648.481000", "140648.484000", "140648.493000", "140648.496000", "140648.498000", "140648.501000", "140728.426000", "140728.429000", "140728.432000", "140728.435000", "140728.437000", "140728.440000", "140728.443000", "140728.446000", "140728.449000", "140728.452000", "140728.454000", "140728.457000", "140728.460000", "140728.463000", "140728.465000", "140728.468000", "140728.471000", "140728.474000", "140728.476000", "140728.479000", "140808.426000", "140808.429000", "140808.432000", "140808.434000", "140808.437000", "140808.440000", "140808.443000", "140808.446000", "140808.448000", "140808.451000", "140808.461000", "140808.464000", "140808.467000", "140808.470000", "140808.473000", "140808.475000", "140808.478000", "140808.481000", "140808.484000", "140808.486000", "140848.426000", "140848.429000", "140848.432000", "140848.434000", "140848.437000", "140848.440000", "140848.443000", "140848.446000", "140848.448000", "140848.451000", "140848.454000", "140848.457000", "140848.459000", "140848.462000", "140848.465000", "140848.468000", "140848.470000", "140848.473000", "140848.476000", "140848.479000", "140928.426000", "140928.429000", "140928.432000", "140928.435000", "140928.437000", "140928.440000", "140928.443000", "140928.446000", "140928.449000", "140928.451000", "140928.454000", "140928.457000", "140928.460000", "140928.463000", "140928.465000", "140928.468000", "140928.471000", "140928.474000", "140928.477000", "140928.479000", "141008.426000", "141008.429000", "141008.432000", "141008.435000", "141008.437000", "141008.440000", "141008.443000", "141008.446000", "141008.448000", "141008.451000", "141008.454000", "141008.457000", "141008.459000", "141008.462000", "141008.465000", "141008.468000", "141008.471000", "141008.474000", "141008.476000", "141008.479000", "141028.426000", "141028.429000", "141028.432000", "141028.435000", "141028.437000", "141028.440000", "141028.443000", "141028.446000", "141028.448000", "141028.451000", "141108.426000", "141108.429000", "141108.431000", "141108.435000", "141108.437000", "141108.440000", "141108.443000", "141108.446000", "141108.448000", "141108.451000", "141108.454000", "141108.457000", "141108.460000", "141108.462000", "141108.465000", "141108.468000", "141108.471000", "141108.474000", "141108.476000", "141108.479000", "141148.426000", "141148.429000", "141148.432000", "141148.435000", "141148.437000", "141148.440000", "141148.443000", "141148.446000", "141148.449000", "141148.451000", "141148.454000", "141148.457000", "141148.460000", "141148.463000", "141148.465000", "141148.468000", "141148.471000", "141148.474000", "141148.477000", "141148.479000", "141228.426000", "141228.429000", "141228.432000", "141228.435000", "141228.437000", "141228.440000", "141228.443000", "141228.446000", "141228.448000", "141228.451000", "141228.454000", "141228.457000", "141228.467000", "141228.469000", "141228.472000", "141228.475000", "141228.478000", "141228.481000", "141228.483000", "141228.486000", "141308.426000", "141308.429000", "141308.432000", "141308.435000", "141308.437000", "141308.440000", "141308.443000", "141308.446000", "141308.449000", "141308.451000", "141308.454000", "141308.457000", "141308.460000", "141308.463000", "141308.465000", "141308.468000", "141308.471000", "141308.474000", "141308.476000", "141308.479000", "141348.426000", "141348.429000", "141348.431000", "141348.435000", "141348.451000", "141348.453000", "141348.456000", "141348.459000", "141348.462000", "141348.465000", "141348.467000", "141348.470000", "141348.473000", "141348.476000", "141348.478000", "141348.481000", "141348.484000", "141348.487000", "141348.490000", "141348.493000", "141428.426000", "141428.429000", "141428.432000", "141428.435000", "141428.437000", "141428.440000", "141428.443000", "141428.446000", "141428.448000", "141428.451000", "141428.454000", "141428.457000", "141428.459000", "141428.462000", "141428.465000", "141428.468000", "141428.470000", "141428.473000", "141428.476000", "141428.479000", "141508.426000", "141508.429000", "141508.432000", "141508.435000", "141508.437000", "141508.440000", "141508.443000", "141508.446000", "141508.449000", "141508.451000", "141508.454000", "141508.457000", "141508.460000", "141508.462000", "141508.465000", "141508.468000", "141508.471000", "141508.474000", "141508.476000", "141508.479000", "141548.426000", "141548.429000", "141548.432000", "141548.435000", "141548.437000", "141548.440000", "141548.443000", "141548.446000", "141548.449000", "141548.451000", "141548.454000", "141548.457000", "141548.460000", "141548.462000", "141548.465000", "141548.468000", "141548.471000", "141548.473000", "141548.476000", "141548.479000", "141628.426000", "141628.429000", "141628.431000", "141628.434000", "141628.437000", "141628.440000", "141628.443000", "141628.446000", "141628.448000", "141628.451000", "141628.454000", "141628.457000", "141628.460000", "141628.462000", "141628.465000", "141628.468000", "141628.471000", "141628.474000", "141628.476000", "141628.479000", "141629.385000"],
      "DataSetTrailingPadding": [
        "\u0000\u0000\u0000\u0000\u0000\u0000\u0000\u0000\u0000\u0000\u0000\u0000\u0000\u0000\u0000\u0000\u0000\u0000\u0000\u0000\u0000\u0000\u0000\u0000\u0000\u0000\u0000\u0000\u0000\u0000\u0000\u0000\u0000\u0000\u0000\u0000\u0000\u0000\u0000\u0000\u0000\u0000\u0000\u0000\u0000\u0000\u0000\u0000\u0000\u0000\u0000\u0000\u0000\u0000\u0000\u0000\u0000\u0000\u0000\u0000\u0000\u0000\u0000\u0000\u0000\u0000\u0000\u0000\u0000\u0000\u0000\u0000\u0000\u0000\u0000\u0000\u0000\u0000\u0000\u0000\u0000\u0000\u0000\u0000\u0000\u0000\u0000\u0000\u0000\u0000\u0000\u0000\u0000\u0000\u0000\u0000\u0000\u0000\u0000\u0000\u0000\u0000\u0000\u0000\u0000\u0000\u0000\u0000\u0000\u0000\u0000\u0000\u0000\u0000\u0000\u0000\u0000\u0000\u0000\u0000\u0000\u0000\u0000\u0000\u0000\u0000\u0000\u0000\u0000\u0000\u0000\u0000\u0000\u0000\u0000\u0000\u0000\u0000\u0000\u0000\u0000\u0000\u0000\u0000\u0000\u0000\u0000\u0000\u0000\u0000\u0000\u0000\u0000\u0000\u0000\u0000\u0000\u0000\u0000\u0000\u0000\u0000\u0000\u0000\u0000\u0000\u0000\u0000\u0000\u0000\u0000\u0000\u0000\u0000\u0000\u0000\u0000\u0000\u0000\u0000\u0000\u0000\u0000\u0000\u0000\u0000\u0000\u0000\u0000\u0000\u0000\u0000\u0000\u0000\u0000\u0000\u0000\u0000\u0000\u0000\u0000\u0000\u0000\u0000\u0000\u0000\u0000\u0000\u0000\u0000\u0000\u0000\u0000\u0000\u0000\u0000\u0000\u0000\u0000\u0000\u0000\u0000\u0000\u0000\u0000\u0000\u0000\u0000\u0000\u0000\u0000\u0000\u0000\u0000\u0000\u0000\u0000\u0000\u0000\u0000\u0000\u0000\u0000\u0000\u0000\u0000\u0000\u0000\u0000\u0000\u0000\u0000\u0000\u0000\u0000\u0000\u0000\u0000\u0000\u0000\u0000\u0000\u0000\u0000\u0000\u0000\u0000\u0000\u0000\u0000\u0000\u0000\u0000\u0000\u0000\u0000\u0000\u0000\u0000\u0000\u0000\u0000\u0000\u0000\u0000\u0000\u0000\u0000",
        "\u0000\u0000\u0000\u0000\u0000\u0000\u0000\u0000\u0000\u0000\u0000\u0000\u0000\u0000\u0000\u0000\u0000\u0000\u0000\u0000\u0000\u0000\u0000\u0000\u0000\u0000\u0000\u0000\u0000\u0000\u0000\u0000\u0000\u0000\u0000\u0000\u0000\u0000\u0000\u0000\u0000\u0000\u0000\u0000\u0000\u0000\u0000\u0000\u0000\u0000\u0000\u0000\u0000\u0000\u0000\u0000\u0000\u0000\u0000\u0000\u0000\u0000\u0000\u0000\u0000\u0000\u0000\u0000\u0000\u0000\u0000\u0000\u0000\u0000\u0000\u0000\u0000\u0000\u0000\u0000\u0000\u0000\u0000\u0000\u0000\u0000\u0000\u0000\u0000\u0000\u0000\u0000\u0000\u0000\u0000\u0000\u0000\u0000\u0000\u0000\u0000\u0000\u0000\u0000\u0000\u0000\u0000\u0000\u0000\u0000\u0000\u0000\u0000\u0000\u0000\u0000\u0000\u0000\u0000\u0000\u0000\u0000\u0000\u0000\u0000\u0000\u0000\u0000\u0000\u0000\u0000\u0000\u0000\u0000\u0000\u0000\u0000\u0000\u0000\u0000\u0000\u0000\u0000\u0000\u0000\u0000\u0000\u0000\u0000\u0000\u0000\u0000\u0000\u0000\u0000\u0000\u0000\u0000\u0000\u0000\u0000\u0000\u0000\u0000\u0000\u0000\u0000\u0000\u0000\u0000\u0000\u0000\u0000\u0000\u0000\u0000\u0000\u0000\u0000\u0000\u0000\u0000\u0000\u0000\u0000\u0000\u0000\u0000\u0000\u0000\u0000\u0000\u0000\u0000\u0000\u0000\u0000\u0000\u0000\u0000\u0000\u0000\u0000\u0000\u0000\u0000\u0000\u0000\u0000\u0000\u0000\u0000\u0000\u0000\u0000\u0000\u0000\u0000\u0000\u0000\u0000\u0000\u0000\u0000\u0000\u0000\u0000\u0000\u0000\u0000\u0000\u0000\u0000\u0000\u0000\u0000\u0000\u0000\u0000\u0000\u0000\u0000\u0000\u0000\u0000\u0000\u0000\u0000\u0000\u0000\u0000\u0000\u0000\u0000\u0000\u0000\u0000\u0000\u0000\u0000\u0000\u0000\u0000\u0000\u0000\u0000\u0000\u0000\u0000\u0000\u0000\u0000\u0000\u0000\u0000\u0000\u0000\u0000\u0000\u0000\u0000\u0000\u0000\u0000\u0000\u0000\u0000\u0000\u0000\u0000",
        "\u0000\u0000\u0000\u0000\u0000\u0000\u0000\u0000\u0000\u0000\u0000\u0000\u0000\u0000\u0000\u0000\u0000\u0000\u0000\u0000\u0000\u0000\u0000\u0000\u0000\u0000\u0000\u0000\u0000\u0000\u0000\u0000\u0000\u0000\u0000\u0000\u0000\u0000\u0000\u0000\u0000\u0000\u0000\u0000\u0000\u0000\u0000\u0000\u0000\u0000\u0000\u0000\u0000\u0000\u0000\u0000\u0000\u0000\u0000\u0000\u0000\u0000\u0000\u0000\u0000\u0000\u0000\u0000\u0000\u0000\u0000\u0000\u0000\u0000\u0000\u0000\u0000\u0000\u0000\u0000\u0000\u0000\u0000\u0000\u0000\u0000\u0000\u0000\u0000\u0000\u0000\u0000\u0000\u0000\u0000\u0000\u0000\u0000\u0000\u0000\u0000\u0000\u0000\u0000\u0000\u0000\u0000\u0000\u0000\u0000\u0000\u0000\u0000\u0000\u0000\u0000\u0000\u0000\u0000\u0000\u0000\u0000\u0000\u0000\u0000\u0000\u0000\u0000\u0000\u0000\u0000\u0000\u0000\u0000\u0000\u0000\u0000\u0000\u0000\u0000\u0000\u0000\u0000\u0000\u0000\u0000\u0000\u0000\u0000\u0000\u0000\u0000\u0000\u0000\u0000\u0000\u0000\u0000\u0000\u0000\u0000\u0000\u0000\u0000\u0000\u0000\u0000\u0000\u0000\u0000\u0000\u0000\u0000\u0000\u0000\u0000\u0000\u0000\u0000\u0000\u0000\u0000\u0000\u0000\u0000\u0000\u0000\u0000\u0000\u0000\u0000\u0000\u0000\u0000\u0000\u0000\u0000\u0000\u0000\u0000\u0000\u0000\u0000\u0000\u0000\u0000\u0000\u0000\u0000\u0000\u0000\u0000\u0000\u0000\u0000\u0000\u0000\u0000\u0000\u0000\u0000\u0000\u0000\u0000\u0000\u0000\u0000\u0000\u0000\u0000\u0000\u0000\u0000\u0000\u0000\u0000\u0000\u0000\u0000\u0000\u0000\u0000\u0000\u0000\u0000\u0000\u0000\u0000\u0000\u0000\u0000\u0000\u0000\u0000\u0000\u0000\u0000\u0000\u0000\u0000\u0000\u0000\u0000\u0000\u0000\u0000\u0000\u0000\u0000\u0000\u0000\u0000\u0000\u0000\u0000\u0000\u0000\u0000\u0000\u0000\u0000\u0000\u0000\u0000\u0000\u0000\u0000\u0000\u0000\u0000",
        "\u0000\u0000\u0000\u0000\u0000\u0000\u0000\u0000\u0000\u0000\u0000\u0000\u0000\u0000\u0000\u0000\u0000\u0000\u0000\u0000\u0000\u0000\u0000\u0000\u0000\u0000\u0000\u0000\u0000\u0000\u0000\u0000\u0000\u0000\u0000\u0000\u0000\u0000\u0000\u0000\u0000\u0000\u0000\u0000\u0000\u0000\u0000\u0000\u0000\u0000\u0000\u0000\u0000\u0000\u0000\u0000\u0000\u0000\u0000\u0000\u0000\u0000\u0000\u0000\u0000\u0000\u0000\u0000\u0000\u0000\u0000\u0000\u0000\u0000\u0000\u0000\u0000\u0000\u0000\u0000\u0000\u0000\u0000\u0000\u0000\u0000\u0000\u0000\u0000\u0000\u0000\u0000\u0000\u0000\u0000\u0000\u0000\u0000\u0000\u0000\u0000\u0000\u0000\u0000\u0000\u0000\u0000\u0000\u0000\u0000\u0000\u0000\u0000\u0000\u0000\u0000\u0000\u0000\u0000\u0000\u0000\u0000\u0000\u0000\u0000\u0000\u0000\u0000\u0000\u0000\u0000\u0000\u0000\u0000\u0000\u0000\u0000\u0000\u0000\u0000\u0000\u0000\u0000\u0000\u0000\u0000\u0000\u0000\u0000\u0000\u0000\u0000\u0000\u0000\u0000\u0000\u0000\u0000\u0000\u0000\u0000\u0000\u0000\u0000\u0000\u0000\u0000\u0000\u0000\u0000\u0000\u0000\u0000\u0000\u0000\u0000\u0000\u0000\u0000\u0000\u0000\u0000\u0000\u0000\u0000\u0000\u0000\u0000\u0000\u0000\u0000\u0000\u0000\u0000\u0000\u0000\u0000\u0000\u0000\u0000\u0000\u0000\u0000\u0000\u0000\u0000\u0000\u0000\u0000\u0000\u0000\u0000\u0000\u0000\u0000\u0000\u0000\u0000\u0000\u0000\u0000\u0000\u0000\u0000\u0000\u0000\u0000\u0000\u0000\u0000\u0000\u0000\u0000\u0000\u0000\u0000\u0000\u0000\u0000\u0000\u0000\u0000\u0000\u0000\u0000\u0000\u0000\u0000\u0000\u0000\u0000\u0000\u0000\u0000\u0000\u0000\u0000\u0000\u0000\u0000\u0000\u0000\u0000\u0000\u0000\u0000\u0000\u0000\u0000\u0000\u0000\u0000\u0000\u0000\u0000\u0000\u0000\u0000\u0000\u0000\u0000\u0000\u0000\u0000\u0000\u0000\u0000\u0000\u0000\u0000",
