{
  "AcquisitionMatrixPE": 70,
  "AcquisitionNumber": 1,
  "AcquisitionTime": "12:22:49.292500",
  "BandwidthPerPixelPhaseEncode": 51.948,
  "BaseResolution": 70,
  "BodyPartExamined": "HEAD",
  "CoilCombinationMethod": "Sum of Squares",
  "ConsistencyInfo": "N4_VE11C_LATEST_20160120",
  "ConversionSoftware": "dcm2niix",
  "ConversionSoftwareVersion": "v1.0.20220720",
  "DerivedVendorReportedEchoSpacing": 0.000550001,
  "DeviceSerialNumber": "66061",
  "DwellTime": 3.3e-06,
  "EchoTime": 0.022,
  "EchoTrainLength": 35,
  "EffectiveEchoSpacing": 0.000275,
  "FlipAngle": 90,
  "HeudiconvVersion": "1.1.1",
  "ImageOrientationPatientDICOM": [0.998299, 0.0119424, 0.057071, -0.0012197, 0.982863, -0.184335],
  "ImageOrientationText": "Tra>Cor(-10.6)>Sag(3.3)",
  "ImageType": [
    "ORIGINAL",
    "PRIMARY",
    "M",
    "ND",
    "NORM",
    "MOSAIC"
],
  "ImagingFrequency": 123.255,
  "InPlanePhaseEncodingDirectionDICOM": "COL",
  "InstitutionAddress": "Street StreetNo,City/1c4204/,District,KR,ZIP",
  "InstitutionName": "SKKU",
  "InstitutionalDepartmentName": "Department",
  "MRAcquisitionType": "2D",
  "MagneticFieldStrength": 3,
  "Manufacturer": "Siemens",
  "ManufacturersModelName": "Prisma",
  "MatrixCoilMode": "GRAPPA",
  "Modality": "MR",
  "NonlinearGradientCorrection": false,
  "ParallelReductionFactorInPlane": 2,
  "PartialFourier": 1,
  "PatientPosition": "HFS",
  "PercentPhaseFOV": 100,
  "PercentSampling": 100,
  "PhaseEncodingDirection": "j-",
  "PhaseEncodingSteps": 70,
  "PhaseResolution": 1,
  "PixelBandwidth": 2165,
  "ProcedureStepDescription": "Head^PI:Others",
  "ProtocolName": "BOLD_ep2d_3x3x3_dimension1",
  "PulseSequenceDetails": "%SiemensSeq%\\ep2d_pace",
  "ReceiveCoilActiveElements": "HC1-7",
  "ReceiveCoilName": "HeadNeck_64",
  "ReconMatrixPE": 70,
  "RefLinesPE": 24,
  "RepetitionTime": 2,
  "SAR": 0.129357,
  "ScanOptions": "FS",
  "ScanningSequence": "EP",
  "SequenceName": "*epfid2d1_70",
  "SequenceVariant": "SK",
  "SeriesDescription": "BOLD_ep2d_3x3x3_dimension1",
  "SeriesNumber": 10,
  "ShimSetting": [5056, 3709, 4419, 483, -52, -51, 74, -10],
  "SliceThickness": 3,
  "SliceTiming": [0.99, 0, 1.035, 0.0475, 1.0825, 0.0925, 1.13, 0.14, 1.1775, 0.1875, 1.225, 0.235, 1.2725, 0.2825, 1.32, 0.33, 1.365, 0.375, 1.4125, 0.4225, 1.46, 0.47, 1.5075, 0.5175, 1.555, 0.565, 1.6025, 0.6125, 1.65, 0.66, 1.695, 0.705, 1.7425, 0.7525, 1.79, 0.8, 1.8375, 0.8475, 1.885, 0.895, 1.9325, 0.9425],
  "SoftwareVersions": "syngo MR E11",
  "SpacingBetweenSlices": 3,
  "StationName": "AWP66061",
  "TaskName": "dimension",
  "TotalReadoutTime": 0.018975,
  "TxRefAmp": 233.503,
  "dcmmeta_affine": [
    [-2.994896173477173, -0.00365910935215652, 0.17488300800323486, 106.58008575439453],
    [-0.03582732379436493, 2.9485883712768555, -0.5518540143966675, -92.49850463867188],
    [0.17121291160583496, 0.55300372838974, 2.943615436553955, -77.2372817993164],
    [0.0, 0.0, 0.0, 1.0]
],
  "dcmmeta_reorient_transform": [
    [0.0, -1.0, 0.0, 69.0],
    [1.0, 0.0, 0.0, 0.0],
    [0.0, 0.0, -1.0, 41.0],
    [0.0, 0.0, 0.0, 1.0]
],
  "dcmmeta_shape": [70, 70, 42, 437],
  "dcmmeta_slice_dim": 2,
  "dcmmeta_version": 0.6,
  "global": {
    "const": {
      "AcquisitionMatrix": [70, 0, 0, 70],
      "AngioFlag": "N",
      "BitsAllocated": 16,
      "BitsStored": 12,
      "BodyPartExamined": "HEAD",
      "Columns": 490,
      "EchoNumbers": 1,
      "EchoTime": 22.0,
      "EchoTrainLength": 35,
      "FlipAngle": 90.0,
      "HighBit": 11,
      "ImageOrientationPatient": [0.99829869408771, 0.01194244065801, 0.05707096892376, -0.0012197030985, 0.9828627971193, -0.1843345718067],
      "ImagePositionPatient": [-741.65757135467, -715.05537538583, 161.7842772938],
      "ImageType": [
        "ORIGINAL",
        "PRIMARY",
        "M",
        "ND",
        "NORM",
        "MOSAIC"
],
      "ImagedNucleus": "1H",
      "ImagingFrequency": 123.254514,
      "InPlanePhaseEncodingDirection": "COL",
      "MRAcquisitionType": "2D",
      "MagneticFieldStrength": 3.0,
      "Manufacturer": "SIEMENS",
      "ManufacturerModelName": "Prisma",
      "Modality": "MR",
      "NumberOfAverages": 1.0,
      "NumberOfPhaseEncodingSteps": 70,
      "PercentPhaseFieldOfView": 100.0,
      "PercentSampling": 100.0,
      "PerformedProcedureStepStartTime": "114058.893000",
      "PhotometricInterpretation": "MONOCHROME2",
      "PixelBandwidth": 2165.0,
      "PixelRepresentation": 0,
      "PixelSpacing": [3.0, 3.0],
      "ProtocolName": "BOLD_ep2d_3x3x3_dimension1",
      "RepetitionTime": 2000.0,
      "Rows": 490,
      "SAR": 0.12935743316388,
      "SamplesPerPixel": 1,
      "ScanOptions": "FS",
      "ScanningSequence": "EP",
      "SequenceName": "*epfid2d1_70",
      "SequenceVariant": "SK",
      "SeriesDescription": "BOLD_ep2d_3x3x3_dimension1",
      "SeriesNumber": 10,
      "SeriesTime": "122346.739000",
      "SliceLocation": 70.44260901591,
      "SliceThickness": 3.0,
      "SmallestImagePixelValue": 0,
      "SoftwareVersions": "syngo MR E11",
      "SpacingBetweenSlices": 2.9999998768494,
      "SpecificCharacterSet": "ISO_IR 100",
      "StudyID": "1",
      "StudyTime": "114058.832000",
      "TransmitCoilName": "Body",
      "VariableFlipAngleFlag": "N",
      "WindowCenterWidthExplanation": "Algo1",
      "dBdt": 0.0},
    "slices": {}
  },
  "time": {
    "samples": {
      "AcquisitionNumber": [1, 2, 3, 4, 5, 6, 7, 8, 9, 10, 11, 12, 13, 14, 15, 16, 17, 18, 19, 20, 21, 22, 23, 24, 25, 26, 27, 28, 29, 30, 31, 32, 33, 34, 35, 36, 37, 38, 39, 40, 41, 42, 43, 44, 45, 46, 47, 48, 49, 50, 51, 52, 53, 54, 55, 56, 57, 58, 59, 60, 61, 62, 63, 64, 65, 66, 67, 68, 69, 70, 71, 72, 73, 74, 75, 76, 77, 78, 79, 80, 81, 82, 83, 84, 85, 86, 87, 88, 89, 90, 91, 92, 93, 94, 95, 96, 97, 98, 99, 100, 101, 102, 103, 104, 105, 106, 107, 108, 109, 110, 111, 112, 113, 114, 115, 116, 117, 118, 119, 120, 121, 122, 123, 124, 125, 126, 127, 128, 129, 130, 131, 132, 133, 134, 135, 136, 137, 138, 139, 140, 141, 142, 143, 144, 145, 146, 147, 148, 149, 150, 151, 152, 153, 154, 155, 156, 157, 158, 159, 160, 161, 162, 163, 164, 165, 166, 167, 168, 169, 170, 171, 172, 173, 174, 175, 176, 177, 178, 179, 180, 181, 182, 183, 184, 185, 186, 187, 188, 189, 190, 191, 192, 193, 194, 195, 196, 197, 198, 199, 200, 201, 202, 203, 204, 205, 206, 207, 208, 209, 210, 211, 212, 213, 214, 215, 216, 217, 218, 219, 220, 221, 222, 223, 224, 225, 226, 227, 228, 229, 230, 231, 232, 233, 234, 235, 236, 237, 238, 239, 240, 241, 242, 243, 244, 245, 246, 247, 248, 249, 250, 251, 252, 253, 254, 255, 256, 257, 258, 259, 260, 261, 262, 263, 264, 265, 266, 267, 268, 269, 270, 271, 272, 273, 274, 275, 276, 277, 278, 279, 280, 281, 282, 283, 284, 285, 286, 287, 288, 289, 290, 291, 292, 293, 294, 295, 296, 297, 298, 299, 300, 301, 302, 303, 304, 305, 306, 307, 308, 309, 310, 311, 312, 313, 314, 315, 316, 317, 318, 319, 320, 321, 322, 323, 324, 325, 326, 327, 328, 329, 330, 331, 332, 333, 334, 335, 336, 337, 338, 339, 340, 341, 342, 343, 344, 345, 346, 347, 348, 349, 350, 351, 352, 353, 354, 355, 356, 357, 358, 359, 360, 361, 362, 363, 364, 365, 366, 367, 368, 369, 370, 371, 372, 373, 374, 375, 376, 377, 378, 379, 380, 381, 382, 383, 384, 385, 386, 387, 388, 389, 390, 391, 392, 393, 394, 395, 396, 397, 398, 399, 400, 401, 402, 403, 404, 405, 406, 407, 408, 409, 410, 411, 412, 413, 414, 415, 416, 417, 418, 419, 420, 421, 422, 423, 424, 425, 426, 427, 428, 429, 430, 431, 432, 433, 434, 435, 436, 437],
      "AcquisitionTime": ["122249.292500", "122251.292500", "122253.292500", "122255.292500", "122257.292500", "122259.292500", "122301.292500", "122303.292500", "122305.292500", "122307.292500", "122309.292500", "122311.292500", "122313.292500", "122315.292500", "122317.292500", "122319.292500", "122321.292500", "122323.292500", "122325.292500", "122327.292500", "122329.292500", "122331.292500", "122333.292500", "122335.292500", "122337.292500", "122339.292500", "122341.292500", "122343.292500", "122345.292500", "122347.292500", "122349.292500", "122351.292500", "122353.292500", "122355.292500", "122357.292500", "122359.292500", "122401.292500", "122403.292500", "122405.292500", "122407.292500", "122409.292500", "122411.292500", "122413.292500", "122415.292500", "122417.292500", "122419.292500", "122421.292500", "122423.292500", "122425.292500", "122427.292500", "122429.292500", "122431.292500", "122433.292500", "122435.292500", "122437.292500", "122439.292500", "122441.292500", "122443.292500", "122445.292500", "122447.292500", "122449.292500", "122451.292500", "122453.292500", "122455.292500", "122457.292500", "122459.292500", "122501.292500", "122503.292500", "122505.292500", "122507.292500", "122509.292500", "122511.292500", "122513.292500", "122515.292500", "122517.292500", "122519.292500", "122521.292500", "122523.292500", "122525.292500", "122527.292500", "122529.292500", "122531.292500", "122533.292500", "122535.292500", "122537.292500", "122539.292500", "122541.292500", "122543.292500", "122545.292500", "122547.292500", "122549.292500", "122551.292500", "122553.292500", "122555.292500", "122557.292500", "122559.292500", "122601.292500", "122603.292500", "122605.292500", "122607.292500", "122609.292500", "122611.292500", "122613.292500", "122615.292500", "122617.292500", "122619.292500", "122621.292500", "122623.292500", "122625.292500", "122627.292500", "122629.292500", "122631.292500", "122633.292500", "122635.292500", "122637.292500", "122639.292500", "122641.292500", "122643.292500", "122645.292500", "122647.292500", "122649.292500", "122651.292500", "122653.292500", "122655.292500", "122657.292500", "122659.292500", "122701.292500", "122703.292500", "122705.292500", "122707.292500", "122709.292500", "122711.292500", "122713.292500", "122715.292500", "122717.292500", "122719.292500", "122721.292500", "122723.292500", "122725.292500", "122727.292500", "122729.292500", "122731.292500", "122733.292500", "122735.292500", "122737.292500", "122739.292500", "122741.292500", "122743.292500", "122745.292500", "122747.292500", "122749.292500", "122751.292500", "122753.292500", "122755.292500", "122757.292500", "122759.292500", "122801.292500", "122803.292500", "122805.292500", "122807.292500", "122809.292500", "122811.292500", "122813.292500", "122815.292500", "122817.292500", "122819.292500", "122821.292500", "122823.292500", "122825.292500", "122827.292500", "122829.292500", "122831.292500", "122833.292500", "122835.292500", "122837.292500", "122839.292500", "122841.292500", "122843.292500", "122845.292500", "122847.292500", "122849.292500", "122851.292500", "122853.292500", "122855.292500", "122857.292500", "122859.292500", "122901.292500", "122903.292500", "122905.292500", "122907.292500", "122909.292500", "122911.292500", "122913.292500", "122915.292500", "122917.292500", "122919.292500", "122921.292500", "122923.292500", "122925.292500", "122927.292500", "122929.292500", "122931.292500", "122933.292500", "122935.292500", "122937.292500", "122939.292500", "122941.292500", "122943.292500", "122945.292500", "122947.292500", "122949.292500", "122951.292500", "122953.292500", "122955.292500", "122957.292500", "122959.292500", "123001.292500", "123003.292500", "123005.292500", "123007.292500", "123009.292500", "123011.292500", "123013.292500", "123015.292500", "123017.292500", "123019.292500", "123021.292500", "123023.292500", "123025.292500", "123027.292500", "123029.292500", "123031.292500", "123033.292500", "123035.292500", "123037.292500", "123039.292500", "123041.292500", "123043.292500", "123045.292500", "123047.292500", "123049.292500", "123051.292500", "123053.292500", "123055.292500", "123057.292500", "123059.292500", "123101.292500", "123103.292500", "123105.292500", "123107.292500", "123109.292500", "123111.292500", "123113.292500", "123115.292500", "123117.292500", "123119.292500", "123121.292500", "123123.292500", "123125.292500", "123127.292500", "123129.292500", "123131.292500", "123133.292500", "123135.292500", "123137.292500", "123139.292500", "123141.292500", "123143.292500", "123145.292500", "123147.292500", "123149.292500", "123151.292500", "123153.292500", "123155.292500", "123157.292500", "123159.292500", "123201.292500", "123203.292500", "123205.292500", "123207.292500", "123209.292500", "123211.292500", "123213.292500", "123215.292500", "123217.292500", "123219.292500", "123221.292500", "123223.292500", "123225.292500", "123227.292500", "123229.292500", "123231.292500", "123233.292500", "123235.292500", "123237.292500", "123239.292500", "123241.292500", "123243.292500", "123245.292500", "123247.292500", "123249.292500", "123251.292500", "123253.292500", "123255.292500", "123257.292500", "123259.292500", "123301.292500", "123303.292500", "123305.292500", "123307.292500", "123309.292500", "123311.292500", "123313.292500", "123315.292500", "123317.292500", "123319.292500", "123321.292500", "123323.292500", "123325.292500", "123327.292500", "123329.292500", "123331.292500", "123333.292500", "123335.292500", "123337.292500", "123339.292500", "123341.292500", "123343.292500", "123345.292500", "123347.292500", "123349.292500", "123351.292500", "123353.292500", "123355.292500", "123357.292500", "123359.292500", "123401.292500", "123403.292500", "123405.292500", "123407.292500", "123409.292500", "123411.292500", "123413.292500", "123415.292500", "123417.292500", "123419.292500", "123421.292500", "123423.292500", "123425.292500", "123427.292500", "123429.292500", "123431.292500", "123433.292500", "123435.292500", "123437.292500", "123439.292500", "123441.292500", "123443.292500", "123445.292500", "123447.292500", "123449.292500", "123451.292500", "123453.292500", "123455.292500", "123457.292500", "123459.292500", "123501.292500", "123503.292500", "123505.292500", "123507.292500", "123509.292500", "123511.292500", "123513.292500", "123515.292500", "123517.292500", "123519.292500", "123521.292500", "123523.292500", "123525.292500", "123527.292500", "123529.292500", "123531.292500", "123533.292500", "123535.292500", "123537.292500", "123539.292500", "123541.292500", "123543.292500", "123545.292500", "123547.292500", "123549.292500", "123551.292500", "123553.292500", "123555.292500", "123557.292500", "123559.292500", "123601.292500", "123603.292500", "123605.292500", "123607.292500", "123609.292500", "123611.292500", "123613.292500", "123615.292500", "123617.292500", "123619.292500", "123621.292500", "123623.292500", "123625.292500", "123627.292500", "123629.292500", "123631.292500", "123633.292500", "123635.292500", "123637.292500", "123639.292500", "123641.292500", "123643.292500", "123645.292500", "123647.292500", "123649.292500", "123651.292500", "123653.292500", "123655.292500", "123657.292500", "123659.292500", "123701.292500", "123703.292500", "123705.292500", "123707.292500", "123709.292500", "123711.292500", "123713.292500", "123715.292500", "123717.292500", "123719.292500", "123721.292500"],
      "ContentTime": ["122346.742000", "122346.746000", "122346.749000", "122346.751000", "122346.754000", "122346.756000", "122346.759000", "122346.762000", "122346.764000", "122346.767000", "122346.770000", "122346.772000", "122346.781000", "122346.784000", "122346.794000", "122346.797000", "122346.799000", "122346.809000", "122346.812000", "122346.814000", "122346.817000", "122346.819000", "122346.822000", "122346.825000", "122346.827000", "122346.830000", "122346.833000", "122346.838000", "122426.737000", "122426.739000", "122426.742000", "122426.751000", "122426.753000", "122426.756000", "122426.759000", "122426.761000", "122426.764000", "122426.767000", "122426.769000", "122426.772000", "122426.774000", "122426.777000", "122426.780000", "122426.782000", "122426.785000", "122426.788000", "122426.790000", "122426.793000", "122506.737000", "122506.739000", "122506.742000", "122506.745000", "122506.748000", "122506.750000", "122506.753000", "122506.765000", "122506.768000", "122506.771000", "122506.773000", "122506.776000", "122506.779000", "122506.781000", "122506.784000", "122506.787000", "122506.789000", "122506.792000", "122506.794000", "122506.797000", "122546.738000", "122546.740000", "122546.743000", "122546.746000", "122546.749000", "122546.751000", "122546.754000", "122546.756000", "122546.759000", "122546.770000", "122546.773000", "122546.776000", "122546.778000", "122546.781000", "122546.784000", "122546.786000", "122546.789000", "122546.792000", "122546.794000", "122546.797000", "122626.738000", "122626.740000", "122626.743000", "122626.746000", "122626.749000", "122626.751000", "122626.754000", "122626.756000", "122626.759000", "122626.762000", "122626.765000", "122626.767000", "122626.770000", "122626.773000", "122626.789000", "122626.792000", "122626.794000", "122626.803000", "122626.805000", "122626.808000", "122706.736000", "122706.739000", "122706.742000", "122706.745000", "122706.747000", "122706.750000", "122706.753000", "122706.755000", "122706.758000", "122706.761000", "122706.763000", "122706.766000", "122706.769000", "122706.771000", "122706.774000", "122706.784000", "122706.787000", "122706.789000", "122706.792000", "122706.795000", "122746.738000", "122746.740000", "122746.743000", "122746.746000", "122746.748000", "122746.751000", "122746.754000", "122746.756000", "122746.759000", "122746.762000", "122746.764000", "122746.767000", "122746.770000", "122746.772000", "122746.775000", "122746.777000", "122746.780000", "122746.783000", "122746.785000", "122746.788000", "122826.738000", "122826.740000", "122826.743000", "122826.746000", "122826.748000", "122826.751000", "122826.754000", "122826.756000", "122826.759000", "122826.762000", "122826.764000", "122826.767000", "122826.769000", "122826.772000", "122826.783000", "122826.786000", "122826.788000", "122826.791000", "122826.794000", "122826.796000", "122846.738000", "122846.741000", "122846.744000", "122846.746000", "122846.749000", "122846.752000", "122846.758000", "122846.760000", "122846.763000", "122846.766000", "122926.737000", "122926.739000", "122926.742000", "122926.745000", "122926.748000", "122926.750000", "122926.753000", "122926.756000", "122926.767000", "122926.770000", "122926.773000", "122926.775000", "122926.778000", "122926.781000", "122926.783000", "122926.786000", "122926.789000", "122926.791000", "122926.794000", "122926.797000", "123006.738000", "123006.740000", "123006.743000", "123006.746000", "123006.748000", "123006.751000", "123006.754000", "123006.757000", "123006.759000", "123006.762000", "123006.765000", "123006.767000", "123006.770000", "123006.773000", "123006.775000", "123006.778000", "123006.792000", "123006.794000", "123006.797000", "123006.800000", "123046.738000", "123046.741000", "123046.743000", "123046.746000", "123046.749000", "123046.751000", "123046.754000", "123046.757000", "123046.759000", "123046.762000", "123046.764000", "123046.767000", "123046.770000", "123046.773000", "123046.775000", "123046.778000", "123046.781000", "123046.783000", "123046.786000", "123046.789000", "123126.737000", "123126.739000", "123126.742000", "123126.745000", "123126.748000", "123126.750000", "123126.753000", "123126.755000", "123126.758000", "123126.761000", "123126.763000", "123126.766000", "123126.769000", "123126.771000", "123126.774000", "123126.777000", "123126.785000", "123126.787000", "123126.790000", "123126.792000", "123206.737000", "123206.740000", "123206.742000", "123206.745000", "123206.748000", "123206.751000", "123206.753000", "123206.756000", "123206.759000", "123206.761000", "123206.764000", "123206.767000", "123206.769000", "123206.772000", "123206.775000", "123206.777000", "123206.780000", "123206.783000", "123206.785000", "123206.788000", "123246.738000", "123246.741000", "123246.743000", "123246.746000", "123246.749000", "123246.751000", "123246.754000", "123246.757000", "123246.759000", "123246.762000", "123246.765000", "123246.778000", "123246.780000", "123246.783000", "123246.786000", "123246.788000", "123246.791000", "123246.794000", "123246.797000", "123246.799000", "123326.738000", "123326.740000", "123326.743000", "123326.746000", "123326.750000", "123326.753000", "123326.755000", "123326.758000", "123326.761000", "123326.764000", "123326.767000", "123326.770000", "123326.773000", "123326.775000", "123326.778000", "123326.780000", "123326.783000", "123326.786000", "123326.788000", "123326.791000", "123406.737000", "123406.740000", "123406.742000", "123406.745000", "123406.748000", "123406.750000", "123406.753000", "123406.756000", "123406.758000", "123406.761000", "123406.764000", "123406.766000", "123406.769000", "123406.772000", "123406.775000", "123406.777000", "123406.780000", "123406.783000", "123406.785000", "123406.788000", "123446.738000", "123446.740000", "123446.743000", "123446.755000", "123446.758000", "123446.761000", "123446.763000", "123446.766000", "123446.769000", "123446.771000", "123446.774000", "123446.777000", "123446.779000", "123446.782000", "123446.785000", "123446.788000", "123446.790000", "123446.793000", "123446.796000", "123446.798000", "123526.738000", "123526.741000", "123526.744000", "123526.746000", "123526.749000", "123526.752000", "123526.755000", "123526.757000", "123526.760000", "123526.763000", "123526.765000", "123526.768000", "123526.770000", "123526.773000", "123526.776000", "123526.778000", "123526.781000", "123526.784000", "123526.786000", "123526.789000", "123606.737000", "123606.740000", "123606.742000", "123606.745000", "123606.748000", "123606.751000", "123606.753000", "123606.756000", "123606.759000", "123606.761000", "123606.764000", "123606.767000", "123606.770000", "123606.772000", "123606.775000", "123606.778000", "123606.781000", "123606.783000", "123606.786000", "123606.789000", "123646.737000", "123646.739000", "123646.742000", "123646.749000", "123646.751000", "123646.754000", "123646.757000", "123646.760000", "123646.762000", "123646.765000", "123646.768000", "123646.770000", "123646.773000", "123646.775000", "123646.778000", "123646.781000", "123646.783000", "123646.786000", "123646.789000", "123646.791000", "123723.110000", "123723.113000", "123723.116000", "123723.119000", "123723.122000", "123723.125000", "123723.127000", "123723.130000", "123723.133000", "123723.140000", "123723.149000", "123723.153000", "123723.156000", "123723.159000", "123723.162000", "123723.171000", "123723.174000", "123723.198000", "123723.201000"],
      "DataSetTrailingPadding": [
        "\u0000\u0000\u0000\u0000\u0000\u0000\u0000\u0000\u0000\u0000\u0000\u0000\u0000\u0000\u0000\u0000\u0000\u0000\u0000\u0000\u0000\u0000\u0000\u0000\u0000\u0000\u0000\u0000\u0000\u0000\u0000\u0000\u0000\u0000\u0000\u0000\u0000\u0000\u0000\u0000\u0000\u0000\u0000\u0000\u0000\u0000\u0000\u0000\u0000\u0000\u0000\u0000\u0000\u0000\u0000\u0000\u0000\u0000\u0000\u0000\u0000\u0000\u0000\u0000\u0000\u0000\u0000\u0000\u0000\u0000\u0000\u0000\u0000\u0000\u0000\u0000\u0000\u0000\u0000\u0000\u0000\u0000\u0000\u0000\u0000\u0000\u0000\u0000\u0000\u0000\u0000\u0000\u0000\u0000\u0000\u0000\u0000\u0000\u0000\u0000\u0000\u0000\u0000\u0000\u0000\u0000\u0000\u0000\u0000\u0000\u0000\u0000\u0000\u0000\u0000\u0000\u0000\u0000\u0000\u0000\u0000\u0000\u0000\u0000\u0000\u0000\u0000\u0000\u0000\u0000\u0000\u0000\u0000\u0000\u0000\u0000\u0000\u0000\u0000\u0000\u0000\u0000\u0000\u0000\u0000\u0000\u0000\u0000\u0000\u0000\u0000\u0000\u0000\u0000\u0000\u0000\u0000\u0000\u0000\u0000\u0000\u0000\u0000\u0000\u0000\u0000\u0000\u0000\u0000\u0000\u0000\u0000\u0000\u0000\u0000\u0000\u0000\u0000\u0000\u0000\u0000\u0000\u0000\u0000\u0000\u0000\u0000\u0000\u0000\u0000\u0000\u0000\u0000\u0000\u0000\u0000\u0000\u0000\u0000\u0000\u0000\u0000\u0000\u0000\u0000\u0000\u0000\u0000\u0000\u0000\u0000\u0000\u0000\u0000\u0000\u0000\u0000\u0000\u0000\u0000\u0000\u0000\u0000\u0000\u0000\u0000\u0000\u0000\u0000\u0000\u0000\u0000\u0000\u0000\u0000\u0000\u0000\u0000\u0000\u0000\u0000\u0000\u0000\u0000\u0000\u0000\u0000\u0000\u0000\u0000\u0000\u0000\u0000\u0000\u0000\u0000\u0000\u0000\u0000\u0000\u0000\u0000\u0000\u0000\u0000\u0000\u0000\u0000\u0000\u0000\u0000\u0000\u0000\u0000\u0000\u0000\u0000\u0000\u0000\u0000\u0000\u0000\u0000\u0000\u0000\u0000\u0000\u0000\u0000\u0000\u0000\u0000\u0000\u0000\u0000\u0000\u0000\u0000\u0000\u0000\u0000\u0000\u0000\u0000\u0000\u0000\u0000\u0000\u0000\u0000\u0000\u0000\u0000\u0000\u0000\u0000",
        "\u0000\u0000\u0000\u0000\u0000\u0000\u0000\u0000\u0000\u0000\u0000\u0000\u0000\u0000\u0000\u0000\u0000\u0000\u0000\u0000\u0000\u0000\u0000\u0000\u0000\u0000\u0000\u0000\u0000\u0000\u0000\u0000\u0000\u0000\u0000\u0000\u0000\u0000\u0000\u0000\u0000\u0000\u0000\u0000\u0000\u0000\u0000\u0000\u0000\u0000\u0000\u0000\u0000\u0000\u0000\u0000\u0000\u0000\u0000\u0000\u0000\u0000\u0000\u0000\u0000\u0000\u0000\u0000\u0000\u0000\u0000\u0000\u0000\u0000\u0000\u0000\u0000\u0000\u0000\u0000\u0000\u0000\u0000\u0000\u0000\u0000\u0000\u0000\u0000\u0000\u0000\u0000\u0000\u0000\u0000\u0000\u0000\u0000\u0000\u0000\u0000\u0000\u0000\u0000\u0000\u0000\u0000\u0000\u0000\u0000\u0000\u0000\u0000\u0000\u0000\u0000\u0000\u0000\u0000\u0000\u0000\u0000\u0000\u0000\u0000\u0000\u0000\u0000\u0000\u0000\u0000\u0000\u0000\u0000\u0000\u0000\u0000\u0000\u0000\u0000\u0000\u0000\u0000\u0000\u0000\u0000\u0000\u0000\u0000\u0000\u0000\u0000\u0000\u0000\u0000\u0000\u0000\u0000\u0000\u0000\u0000\u0000\u0000\u0000\u0000\u0000\u0000\u0000\u0000\u0000\u0000\u0000\u0000\u0000\u0000\u0000\u0000\u0000\u0000\u0000\u0000\u0000\u0000\u0000\u0000\u0000\u0000\u0000\u0000\u0000\u0000\u0000\u0000\u0000\u0000\u0000\u0000\u0000\u0000\u0000\u0000\u0000\u0000\u0000\u0000\u0000\u0000\u0000\u0000\u0000\u0000\u0000\u0000\u0000\u0000\u0000\u0000\u0000\u0000\u0000\u0000\u0000\u0000\u0000\u0000\u0000\u0000\u0000\u0000\u0000\u0000\u0000\u0000\u0000\u0000\u0000\u0000\u0000\u0000\u0000\u0000\u0000\u0000\u0000\u0000\u0000\u0000\u0000\u0000\u0000\u0000\u0000\u0000\u0000\u0000\u0000\u0000\u0000\u0000\u0000\u0000\u0000\u0000\u0000\u0000\u0000\u0000\u0000\u0000\u0000\u0000\u0000\u0000\u0000\u0000\u0000\u0000\u0000\u0000\u0000\u0000\u0000\u0000\u0000\u0000\u0000\u0000\u0000\u0000\u0000\u0000\u0000\u0000\u0000\u0000\u0000\u0000\u0000\u0000\u0000\u0000\u0000\u0000\u0000\u0000\u0000\u0000\u0000\u0000\u0000\u0000\u0000\u0000\u0000\u0000\u0000\u0000\u0000",
        "\u0000\u0000\u0000\u0000\u0000\u0000\u0000\u0000\u0000\u0000\u0000\u0000\u0000\u0000\u0000\u0000\u0000\u0000\u0000\u0000\u0000\u0000\u0000\u0000\u0000\u0000\u0000\u0000\u0000\u0000\u0000\u0000\u0000\u0000\u0000\u0000\u0000\u0000\u0000\u0000\u0000\u0000\u0000\u0000\u0000\u0000\u0000\u0000\u0000\u0000\u0000\u0000\u0000\u0000\u0000\u0000\u0000\u0000\u0000\u0000\u0000\u0000\u0000\u0000\u0000\u0000\u0000\u0000\u0000\u0000\u0000\u0000\u0000\u0000\u0000\u0000\u0000\u0000\u0000\u0000\u0000\u0000\u0000\u0000\u0000\u0000\u0000\u0000\u0000\u0000\u0000\u0000\u0000\u0000\u0000\u0000\u0000\u0000\u0000\u0000\u0000\u0000\u0000\u0000\u0000\u0000\u0000\u0000\u0000\u0000\u0000\u0000\u0000\u0000\u0000\u0000\u0000\u0000\u0000\u0000\u0000\u0000\u0000\u0000\u0000\u0000\u0000\u0000\u0000\u0000\u0000\u0000\u0000\u0000\u0000\u0000\u0000\u0000\u0000\u0000\u0000\u0000\u0000\u0000\u0000\u0000\u0000\u0000\u0000\u0000\u0000\u0000\u0000\u0000\u0000\u0000\u0000\u0000\u0000\u0000\u0000\u0000\u0000\u0000\u0000\u0000\u0000\u0000\u0000\u0000\u0000\u0000\u0000\u0000\u0000\u0000\u0000\u0000\u0000\u0000\u0000\u0000\u0000\u0000\u0000\u0000\u0000\u0000\u0000\u0000\u0000\u0000\u0000\u0000\u0000\u0000\u0000\u0000\u0000\u0000\u0000\u0000\u0000\u0000\u0000\u0000\u0000\u0000\u0000\u0000\u0000\u0000\u0000\u0000\u0000\u0000\u0000\u0000\u0000\u0000\u0000\u0000\u0000\u0000\u0000\u0000\u0000\u0000\u0000\u0000\u0000\u0000\u0000\u0000\u0000\u0000\u0000\u0000\u0000\u0000\u0000\u0000\u0000\u0000\u0000\u0000\u0000\u0000\u0000\u0000\u0000\u0000\u0000\u0000\u0000\u0000\u0000\u0000\u0000\u0000\u0000\u0000\u0000\u0000\u0000\u0000\u0000\u0000\u0000\u0000\u0000\u0000\u0000\u0000\u0000\u0000\u0000\u0000\u0000\u0000\u0000\u0000\u0000\u0000\u0000\u0000\u0000\u0000\u0000\u0000\u0000\u0000\u0000\u0000\u0000\u0000\u0000\u0000\u0000\u0000\u0000\u0000\u0000\u0000\u0000\u0000\u0000\u0000\u0000\u0000\u0000\u0000\u0000\u0000\u0000\u0000\u0000\u0000",
