{
  "AcquisitionMatrixPE": 70,
  "AcquisitionNumber": 1,
  "AcquisitionTime": "16:32:37.527500",
  "BandwidthPerPixelPhaseEncode": 51.948,
  "BaseResolution": 70,
  "BodyPartExamined": "HEAD",
  "CoilCombinationMethod": "Sum of Squares",
  "ConsistencyInfo": "N4_VE11C_LATEST_20160120",
  "ConversionSoftware": "dcm2niix",
  "ConversionSoftwareVersion": "v1.0.20220720",
  "DerivedVendorReportedEchoSpacing": 0.000550001,
  "DeviceSerialNumber": "66061",
  "DwellTime": 3.3e-06,
  "EchoTime": 0.022,
  "EchoTrainLength": 35,
  "EffectiveEchoSpacing": 0.000275,
  "FlipAngle": 90,
  "HeudiconvVersion": "1.1.1",
  "ImageOrientationPatientDICOM": [0.999531, 0.00552668, 0.0301241, -0.00122117, 0.989993, -0.141109],
  "ImageOrientationText": "Tra>Cor(-8.1)>Sag(1.8)",
  "ImageType": [
    "ORIGINAL",
    "PRIMARY",
    "M",
    "ND",
    "NORM",
    "MOSAIC"
],
  "ImagingFrequency": 123.255,
  "InPlanePhaseEncodingDirectionDICOM": "COL",
  "InstitutionAddress": "Street StreetNo,City/1c4204/,District,KR,ZIP",
  "InstitutionName": "SKKU",
  "InstitutionalDepartmentName": "Department",
  "MRAcquisitionType": "2D",
  "MagneticFieldStrength": 3,
  "Manufacturer": "Siemens",
  "ManufacturersModelName": "Prisma",
  "MatrixCoilMode": "GRAPPA",
  "Modality": "MR",
  "NonlinearGradientCorrection": false,
  "ParallelReductionFactorInPlane": 2,
  "PartialFourier": 1,
  "PatientPosition": "HFS",
  "PercentPhaseFOV": 100,
  "PercentSampling": 100,
  "PhaseEncodingDirection": "j-",
  "PhaseEncodingSteps": 70,
  "PhaseResolution": 1,
  "PixelBandwidth": 2165,
  "ProcedureStepDescription": "Head^PI:Others",
  "ProtocolName": "BOLD_ep2d_3x3x3_dimension2",
  "PulseSequenceDetails": "%SiemensSeq%\\ep2d_pace",
  "ReceiveCoilActiveElements": "HC1-7",
  "ReceiveCoilName": "HeadNeck_64",
  "ReconMatrixPE": 70,
  "RefLinesPE": 24,
  "RepetitionTime": 2,
  "SAR": 0.111541,
  "ScanOptions": "FS",
  "ScanningSequence": "EP",
  "SequenceName": "*epfid2d1_70",
  "SequenceVariant": "SK",
  "SeriesDescription": "BOLD_ep2d_3x3x3_dimension2",
  "SeriesNumber": 10,
  "ShimSetting": [5043, 3742, 4295, 287, -88, -110, -29, 47],
  "SliceThickness": 3,
  "SliceTiming": [0.99, 0, 1.0375, 0.0475, 1.085, 0.095, 1.1325, 0.1425, 1.18, 0.19, 1.225, 0.235, 1.2725, 0.2825, 1.32, 0.33, 1.3675, 0.3775, 1.415, 0.425, 1.4625, 0.4725, 1.51, 0.52, 1.555, 0.565, 1.6025, 0.6125, 1.65, 0.66, 1.6975, 0.7075, 1.745, 0.755, 1.7925, 0.8025, 1.84, 0.85, 1.885, 0.895, 1.9325, 0.9425],
  "SoftwareVersions": "syngo MR E11",
  "SpacingBetweenSlices": 3,
  "StationName": "AWP66061",
  "TaskName": "dimension",
  "TotalReadoutTime": 0.018975,
  "TxRefAmp": 221.004,
  "dcmmeta_affine": [
    [-2.9985926151275635, -0.003663513343781233, 0.09180765599012375, 106.74320983886719],
    [-0.01658003218472004, 2.969980001449585, -0.4230170249938965, -92.32377624511719],
    [0.09037239104509354, 0.42332595586776733, 2.968607187271118, -60.26694869995117],
    [0.0, 0.0, 0.0, 1.0]
],
  "dcmmeta_reorient_transform": [
    [0.0, -1.0, 0.0, 69.0],
    [1.0, 0.0, 0.0, 0.0],
    [0.0, 0.0, -1.0, 41.0],
    [0.0, 0.0, 0.0, 1.0]
],
  "dcmmeta_shape": [70, 70, 42, 437],
  "dcmmeta_slice_dim": 2,
  "dcmmeta_version": 0.6,
  "global": {
    "const": {
      "AcquisitionMatrix": [70, 0, 0, 70],
      "AngioFlag": "N",
      "BitsAllocated": 16,
      "BitsStored": 12,
      "BodyPartExamined": "HEAD",
      "Columns": 490,
      "EchoNumbers": 1,
      "EchoTime": 22.0,
      "EchoTrainLength": 35,
      "FlipAngle": 90.0,
      "HighBit": 11,
      "ImageOrientationPatient": [0.99953088623466, 0.00552667727557, 0.03012413154355, -0.0012211710814, 0.98999336209159, -0.1411086523066],
      "ImagePositionPatient": [-739.18965939453, -722.43878010521, 160.57568269736],
      "ImageType": [
        "ORIGINAL",
        "PRIMARY",
        "M",
        "ND",
        "NORM",
        "MOSAIC"
],
      "ImagedNucleus": "1H",
      "ImagingFrequency": 123.254596,
      "InPlanePhaseEncodingDirection": "COL",
      "MRAcquisitionType": "2D",
      "MagneticFieldStrength": 3.0,
      "Manufacturer": "SIEMENS",
      "ManufacturerModelName": "Prisma",
      "Modality": "MR",
      "NumberOfAverages": 1.0,
      "NumberOfPhaseEncodingSteps": 70,
      "PercentPhaseFieldOfView": 100.0,
      "PercentSampling": 100.0,
      "PerformedProcedureStepStartTime": "154145.259000",
      "PhotometricInterpretation": "MONOCHROME2",
      "PixelBandwidth": 2165.0,
      "PixelRepresentation": 0,
      "PixelSpacing": [3.0, 3.0],
      "ProtocolName": "BOLD_ep2d_3x3x3_dimension2",
      "RepetitionTime": 2000.0,
      "Rows": 490,
      "SAR": 0.11154094506758,
      "SamplesPerPixel": 1,
      "ScanOptions": "FS",
      "ScanningSequence": "EP",
      "SequenceName": "*epfid2d1_70",
      "SequenceVariant": "SK",
      "SeriesDescription": "BOLD_ep2d_3x3x3_dimension2",
      "SeriesNumber": 10,
      "SeriesTime": "163335.028000",
      "SliceLocation": 79.64849548781,
      "SliceThickness": 3.0,
      "SmallestImagePixelValue": 0,
      "SoftwareVersions": "syngo MR E11",
      "SpacingBetweenSlices": 3.0000000173096,
      "SpecificCharacterSet": "ISO_IR 100",
      "StudyID": "1",
      "StudyTime": "154145.191000",
      "TransmitCoilName": "Body",
      "VariableFlipAngleFlag": "N",
      "WindowCenterWidthExplanation": "Algo1",
      "dBdt": 0.0},
    "slices": {}
  },
  "time": {
    "samples": {
      "AcquisitionNumber": [1, 2, 3, 4, 5, 6, 7, 8, 9, 10, 11, 12, 13, 14, 15, 16, 17, 18, 19, 20, 21, 22, 23, 24, 25, 26, 27, 28, 29, 30, 31, 32, 33, 34, 35, 36, 37, 38, 39, 40, 41, 42, 43, 44, 45, 46, 47, 48, 49, 50, 51, 52, 53, 54, 55, 56, 57, 58, 59, 60, 61, 62, 63, 64, 65, 66, 67, 68, 69, 70, 71, 72, 73, 74, 75, 76, 77, 78, 79, 80, 81, 82, 83, 84, 85, 86, 87, 88, 89, 90, 91, 92, 93, 94, 95, 96, 97, 98, 99, 100, 101, 102, 103, 104, 105, 106, 107, 108, 109, 110, 111, 112, 113, 114, 115, 116, 117, 118, 119, 120, 121, 122, 123, 124, 125, 126, 127, 128, 129, 130, 131, 132, 133, 134, 135, 136, 137, 138, 139, 140, 141, 142, 143, 144, 145, 146, 147, 148, 149, 150, 151, 152, 153, 154, 155, 156, 157, 158, 159, 160, 161, 162, 163, 164, 165, 166, 167, 168, 169, 170, 171, 172, 173, 174, 175, 176, 177, 178, 179, 180, 181, 182, 183, 184, 185, 186, 187, 188, 189, 190, 191, 192, 193, 194, 195, 196, 197, 198, 199, 200, 201, 202, 203, 204, 205, 206, 207, 208, 209, 210, 211, 212, 213, 214, 215, 216, 217, 218, 219, 220, 221, 222, 223, 224, 225, 226, 227, 228, 229, 230, 231, 232, 233, 234, 235, 236, 237, 238, 239, 240, 241, 242, 243, 244, 245, 246, 247, 248, 249, 250, 251, 252, 253, 254, 255, 256, 257, 258, 259, 260, 261, 262, 263, 264, 265, 266, 267, 268, 269, 270, 271, 272, 273, 274, 275, 276, 277, 278, 279, 280, 281, 282, 283, 284, 285, 286, 287, 288, 289, 290, 291, 292, 293, 294, 295, 296, 297, 298, 299, 300, 301, 302, 303, 304, 305, 306, 307, 308, 309, 310, 311, 312, 313, 314, 315, 316, 317, 318, 319, 320, 321, 322, 323, 324, 325, 326, 327, 328, 329, 330, 331, 332, 333, 334, 335, 336, 337, 338, 339, 340, 341, 342, 343, 344, 345, 346, 347, 348, 349, 350, 351, 352, 353, 354, 355, 356, 357, 358, 359, 360, 361, 362, 363, 364, 365, 366, 367, 368, 369, 370, 371, 372, 373, 374, 375, 376, 377, 378, 379, 380, 381, 382, 383, 384, 385, 386, 387, 388, 389, 390, 391, 392, 393, 394, 395, 396, 397, 398, 399, 400, 401, 402, 403, 404, 405, 406, 407, 408, 409, 410, 411, 412, 413, 414, 415, 416, 417, 418, 419, 420, 421, 422, 423, 424, 425, 426, 427, 428, 429, 430, 431, 432, 433, 434, 435, 436, 437],
      "AcquisitionTime": ["163237.527500", "163239.527500", "163241.527500", "163243.527500", "163245.527500", "163247.527500", "163249.527500", "163251.527500", "163253.527500", "163255.527500", "163257.527500", "163259.527500", "163301.527500", "163303.527500", "163305.527500", "163307.527500", "163309.527500", "163311.527500", "163313.527500", "163315.527500", "163317.527500", "163319.527500", "163321.527500", "163323.527500", "163325.527500", "163327.527500", "163329.527500", "163331.527500", "163333.527500", "163335.527500", "163337.527500", "163339.527500", "163341.527500", "163343.527500", "163345.527500", "163347.527500", "163349.527500", "163351.527500", "163353.527500", "163355.527500", "163357.527500", "163359.527500", "163401.527500", "163403.527500", "163405.527500", "163407.527500", "163409.527500", "163411.527500", "163413.527500", "163415.527500", "163417.527500", "163419.527500", "163421.527500", "163423.527500", "163425.527500", "163427.527500", "163429.527500", "163431.527500", "163433.527500", "163435.527500", "163437.527500", "163439.527500", "163441.527500", "163443.527500", "163445.527500", "163447.527500", "163449.527500", "163451.527500", "163453.527500", "163455.527500", "163457.527500", "163459.527500", "163501.527500", "163503.527500", "163505.527500", "163507.527500", "163509.527500", "163511.527500", "163513.527500", "163515.527500", "163517.527500", "163519.527500", "163521.527500", "163523.527500", "163525.527500", "163527.527500", "163529.527500", "163531.527500", "163533.527500", "163535.527500", "163537.527500", "163539.527500", "163541.527500", "163543.527500", "163545.527500", "163547.527500", "163549.527500", "163551.527500", "163553.527500", "163555.527500", "163557.527500", "163559.527500", "163601.527500", "163603.527500", "163605.527500", "163607.527500", "163609.527500", "163611.527500", "163613.527500", "163615.527500", "163617.527500", "163619.527500", "163621.527500", "163623.527500", "163625.527500", "163627.527500", "163629.527500", "163631.527500", "163633.527500", "163635.527500", "163637.527500", "163639.527500", "163641.527500", "163643.527500", "163645.527500", "163647.527500", "163649.527500", "163651.527500", "163653.527500", "163655.527500", "163657.527500", "163659.527500", "163701.527500", "163703.527500", "163705.527500", "163707.527500", "163709.527500", "163711.527500", "163713.527500", "163715.527500", "163717.527500", "163719.527500", "163721.527500", "163723.527500", "163725.527500", "163727.527500", "163729.527500", "163731.527500", "163733.527500", "163735.527500", "163737.527500", "163739.527500", "163741.527500", "163743.527500", "163745.527500", "163747.527500", "163749.527500", "163751.527500", "163753.527500", "163755.527500", "163757.527500", "163759.527500", "163801.527500", "163803.527500", "163805.527500", "163807.527500", "163809.527500", "163811.527500", "163813.527500", "163815.527500", "163817.527500", "163819.527500", "163821.527500", "163823.527500", "163825.527500", "163827.527500", "163829.527500", "163831.527500", "163833.527500", "163835.527500", "163837.527500", "163839.527500", "163841.527500", "163843.527500", "163845.527500", "163847.527500", "163849.527500", "163851.527500", "163853.527500", "163855.527500", "163857.527500", "163859.527500", "163901.527500", "163903.527500", "163905.527500", "163907.527500", "163909.527500", "163911.527500", "163913.527500", "163915.527500", "163917.527500", "163919.527500", "163921.527500", "163923.527500", "163925.527500", "163927.527500", "163929.527500", "163931.527500", "163933.527500", "163935.527500", "163937.527500", "163939.527500", "163941.527500", "163943.527500", "163945.527500", "163947.527500", "163949.527500", "163951.527500", "163953.527500", "163955.527500", "163957.527500", "163959.527500", "164001.527500", "164003.527500", "164005.527500", "164007.527500", "164009.527500", "164011.527500", "164013.527500", "164015.527500", "164017.527500", "164019.527500", "164021.527500", "164023.527500", "164025.527500", "164027.527500", "164029.527500", "164031.527500", "164033.527500", "164035.527500", "164037.527500", "164039.527500", "164041.527500", "164043.527500", "164045.527500", "164047.527500", "164049.527500", "164051.527500", "164053.527500", "164055.527500", "164057.527500", "164059.527500", "164101.527500", "164103.527500", "164105.527500", "164107.527500", "164109.527500", "164111.527500", "164113.527500", "164115.527500", "164117.527500", "164119.527500", "164121.527500", "164123.527500", "164125.527500", "164127.527500", "164129.527500", "164131.527500", "164133.527500", "164135.527500", "164137.527500", "164139.527500", "164141.527500", "164143.527500", "164145.527500", "164147.527500", "164149.527500", "164151.527500", "164153.527500", "164155.527500", "164157.527500", "164159.527500", "164201.527500", "164203.527500", "164205.527500", "164207.527500", "164209.527500", "164211.527500", "164213.527500", "164215.527500", "164217.527500", "164219.527500", "164221.527500", "164223.527500", "164225.527500", "164227.527500", "164229.527500", "164231.527500", "164233.527500", "164235.527500", "164237.527500", "164239.527500", "164241.527500", "164243.527500", "164245.527500", "164247.527500", "164249.527500", "164251.527500", "164253.527500", "164255.527500", "164257.527500", "164259.527500", "164301.527500", "164303.527500", "164305.527500", "164307.527500", "164309.527500", "164311.527500", "164313.527500", "164315.527500", "164317.527500", "164319.527500", "164321.527500", "164323.527500", "164325.527500", "164327.527500", "164329.527500", "164331.527500", "164333.527500", "164335.527500", "164337.527500", "164339.527500", "164341.527500", "164343.527500", "164345.527500", "164347.527500", "164349.527500", "164351.527500", "164353.527500", "164355.527500", "164357.527500", "164359.527500", "164401.527500", "164403.527500", "164405.527500", "164407.527500", "164409.527500", "164411.527500", "164413.527500", "164415.527500", "164417.527500", "164419.527500", "164421.527500", "164423.527500", "164425.527500", "164427.527500", "164429.527500", "164431.527500", "164433.527500", "164435.527500", "164437.527500", "164439.527500", "164441.527500", "164443.527500", "164445.527500", "164447.527500", "164449.527500", "164451.527500", "164453.527500", "164455.527500", "164457.527500", "164459.527500", "164501.527500", "164503.527500", "164505.527500", "164507.527500", "164509.527500", "164511.527500", "164513.527500", "164515.527500", "164517.527500", "164519.527500", "164521.527500", "164523.527500", "164525.527500", "164527.527500", "164529.527500", "164531.527500", "164533.527500", "164535.527500", "164537.527500", "164539.527500", "164541.527500", "164543.527500", "164545.527500", "164547.527500", "164549.527500", "164551.527500", "164553.527500", "164555.527500", "164557.527500", "164559.527500", "164601.527500", "164603.527500", "164605.527500", "164607.527500", "164609.527500", "164611.527500", "164613.527500", "164615.527500", "164617.527500", "164619.527500", "164621.527500", "164623.527500", "164625.527500", "164627.527500", "164629.527500", "164631.527500", "164633.527500", "164635.527500", "164637.527500", "164639.527500", "164641.527500", "164643.527500", "164645.527500", "164647.527500", "164649.527500", "164651.527500", "164653.527500", "164655.527500", "164657.527500", "164659.527500", "164701.527500", "164703.527500", "164705.527500", "164707.527500", "164709.527500"],
      "ContentTime": ["163335.031000", "163335.035000", "163335.038000", "163335.040000", "163335.043000", "163335.046000", "163335.048000", "163335.051000", "163335.053000", "163335.056000", "163335.065000", "163335.067000", "163335.070000", "163335.072000", "163335.075000", "163335.078000", "163335.080000", "163335.083000", "163335.086000", "163335.088000", "163335.091000", "163335.094000", "163335.096000", "163335.099000", "163335.102000", "163335.104000", "163335.107000", "163335.110000", "163415.027000", "163415.030000", "163415.041000", "163415.044000", "163415.047000", "163415.050000", "163415.052000", "163415.055000", "163415.058000", "163415.060000", "163415.063000", "163415.066000", "163415.068000", "163415.071000", "163415.074000", "163415.076000", "163415.079000", "163415.082000", "163415.084000", "163415.087000", "163455.028000", "163455.031000", "163455.033000", "163455.036000", "163455.039000", "163455.041000", "163455.044000", "163455.047000", "163455.050000", "163455.053000", "163455.055000", "163455.058000", "163455.061000", "163455.063000", "163455.066000", "163455.069000", "163455.071000", "163455.074000", "163455.076000", "163455.079000", "163535.028000", "163535.031000", "163535.033000", "163535.036000", "163535.039000", "163535.041000", "163535.044000", "163535.047000", "163535.049000", "163535.052000", "163535.054000", "163535.057000", "163535.060000", "163535.062000", "163535.065000", "163535.067000", "163535.070000", "163535.089000", "163535.092000", "163535.094000", "163615.027000", "163615.030000", "163615.032000", "163615.035000", "163615.038000", "163615.040000", "163615.043000", "163615.045000", "163615.048000", "163615.051000", "163615.053000", "163615.056000", "163615.059000", "163615.061000", "163615.064000", "163615.067000", "163615.069000", "163615.072000", "163615.075000", "163615.084000", "163655.028000", "163655.031000", "163655.033000", "163655.036000", "163655.039000", "163655.041000", "163655.044000", "163655.047000", "163655.049000", "163655.052000", "163655.055000", "163655.057000", "163655.060000", "163655.063000", "163655.065000", "163655.068000", "163655.071000", "163655.073000", "163655.076000", "163655.079000", "163735.028000", "163735.031000", "163735.033000", "163735.036000", "163735.039000", "163735.041000", "163735.044000", "163735.046000", "163735.049000", "163735.052000", "163735.054000", "163735.057000", "163735.060000", "163735.062000", "163735.065000", "163735.068000", "163735.070000", "163735.073000", "163735.076000", "163735.078000", "163755.028000", "163755.031000", "163755.033000", "163755.036000", "163755.039000", "163755.041000", "163755.044000", "163755.047000", "163755.049000", "163755.052000", "163835.027000", "163835.030000", "163835.032000", "163835.035000", "163835.038000", "163835.040000", "163835.043000", "163835.046000", "163835.048000", "163835.051000", "163835.054000", "163835.056000", "163835.059000", "163835.062000", "163835.064000", "163835.067000", "163835.070000", "163835.072000", "163835.075000", "163835.078000", "163915.028000", "163915.031000", "163915.033000", "163915.036000", "163915.039000", "163915.041000", "163915.044000", "163915.047000", "163915.049000", "163915.052000", "163915.055000", "163915.057000", "163915.060000", "163915.063000", "163915.065000", "163915.068000", "163915.071000", "163915.073000", "163915.076000", "163915.079000", "163955.028000", "163955.031000", "163955.033000", "163955.036000", "163955.039000", "163955.041000", "163955.044000", "163955.047000", "163955.049000", "163955.052000", "163955.055000", "163955.057000", "163955.060000", "163955.063000", "163955.065000", "163955.068000", "163955.071000", "163955.073000", "163955.076000", "163955.079000", "164035.027000", "164035.030000", "164035.032000", "164035.035000", "164035.038000", "164035.040000", "164035.043000", "164035.046000", "164035.048000", "164035.051000", "164035.054000", "164035.056000", "164035.059000", "164035.062000", "164035.064000", "164035.067000", "164035.070000", "164035.072000", "164035.075000", "164035.078000", "164115.027000", "164115.030000", "164115.032000", "164115.035000", "164115.038000", "164115.040000", "164115.043000", "164115.046000", "164115.048000", "164115.051000", "164115.054000", "164115.056000", "164115.059000", "164115.062000", "164115.064000", "164115.067000", "164115.070000", "164115.073000", "164115.075000", "164115.078000", "164155.028000", "164155.031000", "164155.033000", "164155.036000", "164155.039000", "164155.041000", "164155.044000", "164155.047000", "164155.049000", "164155.052000", "164155.055000", "164155.058000", "164155.060000", "164155.063000", "164155.066000", "164155.069000", "164155.071000", "164155.074000", "164155.077000", "164155.079000", "164235.028000", "164235.031000", "164235.033000", "164235.036000", "164235.039000", "164235.041000", "164235.044000", "164235.047000", "164235.049000", "164235.052000", "164235.055000", "164235.058000", "164235.060000", "164235.063000", "164235.066000", "164235.068000", "164235.071000", "164235.074000", "164235.076000", "164235.079000", "164315.027000", "164315.030000", "164315.032000", "164315.035000", "164315.038000", "164315.041000", "164315.043000", "164315.046000", "164315.049000", "164315.051000", "164315.054000", "164315.057000", "164315.059000", "164315.062000", "164315.065000", "164315.067000", "164315.070000", "164315.073000", "164315.075000", "164315.078000", "164355.028000", "164355.031000", "164355.033000", "164355.036000", "164355.039000", "164355.041000", "164355.044000", "164355.047000", "164355.049000", "164355.052000", "164355.055000", "164355.058000", "164355.060000", "164355.063000", "164355.066000", "164355.068000", "164355.071000", "164355.074000", "164355.076000", "164355.079000", "164435.028000", "164435.031000", "164435.033000", "164435.036000", "164435.039000", "164435.042000", "164435.044000", "164435.047000", "164435.061000", "164435.064000", "164435.067000", "164435.070000", "164435.072000", "164435.075000", "164435.078000", "164435.080000", "164435.083000", "164435.086000", "164435.088000", "164435.092000", "164515.027000", "164515.030000", "164515.032000", "164515.035000", "164515.038000", "164515.040000", "164515.043000", "164515.046000", "164515.048000", "164515.051000", "164515.054000", "164515.056000", "164515.059000", "164515.062000", "164515.064000", "164515.067000", "164515.070000", "164515.073000", "164515.075000", "164515.078000", "164555.027000", "164555.030000", "164555.032000", "164555.035000", "164555.038000", "164555.040000", "164555.043000", "164555.046000", "164555.048000", "164555.051000", "164555.054000", "164555.056000", "164555.059000", "164555.062000", "164555.065000", "164555.067000", "164555.070000", "164555.073000", "164555.075000", "164555.078000", "164635.028000", "164635.031000", "164635.033000", "164635.036000", "164635.039000", "164635.041000", "164635.044000", "164635.047000", "164635.049000", "164635.052000", "164635.055000", "164635.058000", "164635.060000", "164635.063000", "164635.066000", "164635.068000", "164635.071000", "164635.074000", "164635.076000", "164635.079000", "164711.132000", "164711.135000", "164711.138000", "164711.141000", "164711.143000", "164711.146000", "164711.149000", "164711.151000", "164711.154000", "164711.157000", "164711.160000", "164711.162000", "164711.168000", "164711.174000", "164711.177000", "164711.179000", "164711.182000", "164711.185000", "164711.189000"],
      "DataSetTrailingPadding": [
        "\u0000\u0000\u0000\u0000\u0000\u0000\u0000\u0000\u0000\u0000\u0000\u0000\u0000\u0000\u0000\u0000\u0000\u0000\u0000\u0000\u0000\u0000\u0000\u0000\u0000\u0000\u0000\u0000\u0000\u0000\u0000\u0000\u0000\u0000\u0000\u0000\u0000\u0000\u0000\u0000\u0000\u0000\u0000\u0000\u0000\u0000\u0000\u0000\u0000\u0000\u0000\u0000\u0000\u0000\u0000\u0000\u0000\u0000\u0000\u0000\u0000\u0000\u0000\u0000\u0000\u0000\u0000\u0000\u0000\u0000\u0000\u0000\u0000\u0000\u0000\u0000\u0000\u0000\u0000\u0000\u0000\u0000\u0000\u0000\u0000\u0000\u0000\u0000\u0000\u0000\u0000\u0000\u0000\u0000\u0000\u0000\u0000\u0000\u0000\u0000\u0000\u0000\u0000\u0000\u0000\u0000\u0000\u0000\u0000\u0000\u0000\u0000\u0000\u0000\u0000\u0000\u0000\u0000\u0000\u0000\u0000\u0000\u0000\u0000\u0000\u0000\u0000\u0000\u0000\u0000\u0000\u0000\u0000\u0000\u0000\u0000\u0000\u0000\u0000\u0000\u0000\u0000\u0000\u0000\u0000\u0000\u0000\u0000\u0000\u0000\u0000\u0000\u0000\u0000\u0000\u0000\u0000\u0000\u0000\u0000\u0000\u0000\u0000\u0000\u0000\u0000\u0000\u0000\u0000\u0000\u0000\u0000\u0000\u0000\u0000\u0000\u0000\u0000\u0000\u0000\u0000\u0000\u0000\u0000\u0000\u0000\u0000\u0000\u0000\u0000\u0000\u0000\u0000\u0000\u0000\u0000\u0000\u0000\u0000\u0000\u0000\u0000\u0000\u0000\u0000\u0000\u0000\u0000\u0000\u0000\u0000\u0000\u0000\u0000\u0000\u0000\u0000\u0000\u0000\u0000\u0000\u0000\u0000\u0000\u0000\u0000\u0000\u0000\u0000\u0000\u0000\u0000\u0000\u0000\u0000\u0000\u0000\u0000\u0000\u0000\u0000\u0000\u0000\u0000\u0000\u0000\u0000\u0000\u0000\u0000\u0000\u0000\u0000\u0000\u0000\u0000\u0000\u0000\u0000\u0000\u0000\u0000\u0000\u0000\u0000\u0000\u0000\u0000\u0000\u0000\u0000\u0000\u0000\u0000\u0000\u0000\u0000\u0000\u0000\u0000\u0000\u0000\u0000\u0000\u0000\u0000\u0000\u0000\u0000\u0000\u0000\u0000\u0000\u0000\u0000\u0000\u0000\u0000\u0000\u0000\u0000\u0000\u0000\u0000\u0000\u0000\u0000\u0000\u0000\u0000\u0000\u0000\u0000\u0000\u0000\u0000\u0000\u0000\u0000\u0000\u0000\u0000\u0000\u0000\u0000\u0000\u0000\u0000\u0000\u0000\u0000\u0000\u0000\u0000\u0000\u0000\u0000\u0000\u0000\u0000\u0000\u0000",
        "\u0000\u0000\u0000\u0000\u0000\u0000\u0000\u0000\u0000\u0000\u0000\u0000\u0000\u0000\u0000\u0000\u0000\u0000\u0000\u0000\u0000\u0000\u0000\u0000\u0000\u0000\u0000\u0000\u0000\u0000\u0000\u0000\u0000\u0000\u0000\u0000\u0000\u0000\u0000\u0000\u0000\u0000\u0000\u0000\u0000\u0000\u0000\u0000\u0000\u0000\u0000\u0000\u0000\u0000\u0000\u0000\u0000\u0000\u0000\u0000\u0000\u0000\u0000\u0000\u0000\u0000\u0000\u0000\u0000\u0000\u0000\u0000\u0000\u0000\u0000\u0000\u0000\u0000\u0000\u0000\u0000\u0000\u0000\u0000\u0000\u0000\u0000\u0000\u0000\u0000\u0000\u0000\u0000\u0000\u0000\u0000\u0000\u0000\u0000\u0000\u0000\u0000\u0000\u0000\u0000\u0000\u0000\u0000\u0000\u0000\u0000\u0000\u0000\u0000\u0000\u0000\u0000\u0000\u0000\u0000\u0000\u0000\u0000\u0000\u0000\u0000\u0000\u0000\u0000\u0000\u0000\u0000\u0000\u0000\u0000\u0000\u0000\u0000\u0000\u0000\u0000\u0000\u0000\u0000\u0000\u0000\u0000\u0000\u0000\u0000\u0000\u0000\u0000\u0000\u0000\u0000\u0000\u0000\u0000\u0000\u0000\u0000\u0000\u0000\u0000\u0000\u0000\u0000\u0000\u0000\u0000\u0000\u0000\u0000\u0000\u0000\u0000\u0000\u0000\u0000\u0000\u0000\u0000\u0000\u0000\u0000\u0000\u0000\u0000\u0000\u0000\u0000\u0000\u0000\u0000\u0000\u0000\u0000\u0000\u0000\u0000\u0000\u0000\u0000\u0000\u0000\u0000\u0000\u0000\u0000\u0000\u0000\u0000\u0000\u0000\u0000\u0000\u0000\u0000\u0000\u0000\u0000\u0000\u0000\u0000\u0000\u0000\u0000\u0000\u0000\u0000\u0000\u0000\u0000\u0000\u0000\u0000\u0000\u0000\u0000\u0000\u0000\u0000\u0000\u0000\u0000\u0000\u0000\u0000\u0000\u0000\u0000\u0000\u0000\u0000\u0000\u0000\u0000\u0000\u0000\u0000\u0000\u0000\u0000\u0000\u0000\u0000\u0000\u0000\u0000\u0000\u0000\u0000\u0000\u0000\u0000\u0000\u0000\u0000\u0000\u0000\u0000\u0000\u0000\u0000\u0000\u0000\u0000\u0000\u0000\u0000\u0000\u0000\u0000\u0000\u0000\u0000\u0000\u0000\u0000\u0000\u0000\u0000\u0000\u0000\u0000\u0000\u0000\u0000\u0000\u0000\u0000\u0000\u0000\u0000\u0000\u0000\u0000\u0000\u0000\u0000\u0000\u0000\u0000\u0000\u0000\u0000\u0000\u0000\u0000\u0000\u0000\u0000\u0000\u0000\u0000\u0000\u0000\u0000\u0000",
        "\u0000\u0000\u0000\u0000\u0000\u0000\u0000\u0000\u0000\u0000\u0000\u0000\u0000\u0000\u0000\u0000\u0000\u0000\u0000\u0000\u0000\u0000\u0000\u0000\u0000\u0000\u0000\u0000\u0000\u0000\u0000\u0000\u0000\u0000\u0000\u0000\u0000\u0000\u0000\u0000\u0000\u0000\u0000\u0000\u0000\u0000\u0000\u0000\u0000\u0000\u0000\u0000\u0000\u0000\u0000\u0000\u0000\u0000\u0000\u0000\u0000\u0000\u0000\u0000\u0000\u0000\u0000\u0000\u0000\u0000\u0000\u0000\u0000\u0000\u0000\u0000\u0000\u0000\u0000\u0000\u0000\u0000\u0000\u0000\u0000\u0000\u0000\u0000\u0000\u0000\u0000\u0000\u0000\u0000\u0000\u0000\u0000\u0000\u0000\u0000\u0000\u0000\u0000\u0000\u0000\u0000\u0000\u0000\u0000\u0000\u0000\u0000\u0000\u0000\u0000\u0000\u0000\u0000\u0000\u0000\u0000\u0000\u0000\u0000\u0000\u0000\u0000\u0000\u0000\u0000\u0000\u0000\u0000\u0000\u0000\u0000\u0000\u0000\u0000\u0000\u0000\u0000\u0000\u0000\u0000\u0000\u0000\u0000\u0000\u0000\u0000\u0000\u0000\u0000\u0000\u0000\u0000\u0000\u0000\u0000\u0000\u0000\u0000\u0000\u0000\u0000\u0000\u0000\u0000\u0000\u0000\u0000\u0000\u0000\u0000\u0000\u0000\u0000\u0000\u0000\u0000\u0000\u0000\u0000\u0000\u0000\u0000\u0000\u0000\u0000\u0000\u0000\u0000\u0000\u0000\u0000\u0000\u0000\u0000\u0000\u0000\u0000\u0000\u0000\u0000\u0000\u0000\u0000\u0000\u0000\u0000\u0000\u0000\u0000\u0000\u0000\u0000\u0000\u0000\u0000\u0000\u0000\u0000\u0000\u0000\u0000\u0000\u0000\u0000\u0000\u0000\u0000\u0000\u0000\u0000\u0000\u0000\u0000\u0000\u0000\u0000\u0000\u0000\u0000\u0000\u0000\u0000\u0000\u0000\u0000\u0000\u0000\u0000\u0000\u0000\u0000\u0000\u0000\u0000\u0000\u0000\u0000\u0000\u0000\u0000\u0000\u0000\u0000\u0000\u0000\u0000\u0000\u0000\u0000\u0000\u0000\u0000\u0000\u0000\u0000\u0000\u0000\u0000\u0000\u0000\u0000\u0000\u0000\u0000\u0000\u0000\u0000\u0000\u0000\u0000\u0000\u0000\u0000\u0000\u0000\u0000\u0000\u0000\u0000\u0000\u0000\u0000\u0000\u0000\u0000\u0000\u0000\u0000\u0000\u0000\u0000\u0000\u0000\u0000\u0000\u0000\u0000\u0000\u0000\u0000\u0000\u0000\u0000\u0000\u0000\u0000\u0000\u0000\u0000\u0000\u0000\u0000\u0000\u0000\u0000",
