{
  "AcquisitionMatrixPE": 70,
  "AcquisitionNumber": 1,
  "AcquisitionTime": "13:19:11.910000",
  "BandwidthPerPixelPhaseEncode": 51.948,
  "BaseResolution": 70,
  "BodyPartExamined": "HEAD",
  "CoilCombinationMethod": "Sum of Squares",
  "ConsistencyInfo": "N4_VE11C_LATEST_20160120",
  "ConversionSoftware": "dcm2niix",
  "ConversionSoftwareVersion": "v1.0.20220720",
  "DerivedVendorReportedEchoSpacing": 0.000550001,
  "DeviceSerialNumber": "66061",
  "DwellTime": 3.3e-06,
  "EchoTime": 0.022,
  "EchoTrainLength": 35,
  "EffectiveEchoSpacing": 0.000275,
  "FlipAngle": 90,
  "HeudiconvVersion": "1.1.1",
  "ImageOrientationPatientDICOM": [0.999668, 0.00479243, 0.0253095, -0.00122139, 0.990254, -0.139266],
  "ImageOrientationText": "Tra>Cor(-8.0)>Sag(1.5)",
  "ImageType": [
    "ORIGINAL",
    "PRIMARY",
    "M",
    "ND",
    "NORM",
    "MOSAIC"
],
  "ImagingFrequency": 123.256,
  "InPlanePhaseEncodingDirectionDICOM": "COL",
  "InstitutionAddress": "Street StreetNo,City/1c4204/,District,KR,ZIP",
  "InstitutionName": "SKKU",
  "InstitutionalDepartmentName": "Department",
  "MRAcquisitionType": "2D",
  "MagneticFieldStrength": 3,
  "Manufacturer": "Siemens",
  "ManufacturersModelName": "Prisma",
  "MatrixCoilMode": "GRAPPA",
  "Modality": "MR",
  "NonlinearGradientCorrection": false,
  "ParallelReductionFactorInPlane": 2,
  "PartialFourier": 1,
  "PatientPosition": "HFS",
  "PercentPhaseFOV": 100,
  "PercentSampling": 100,
  "PhaseEncodingDirection": "j-",
  "PhaseEncodingSteps": 70,
  "PhaseResolution": 1,
  "PixelBandwidth": 2165,
  "ProcedureStepDescription": "Head^PI:Others",
  "ProtocolName": "BOLD_ep2d_3x3x3_response2",
  "PulseSequenceDetails": "%SiemensSeq%\\ep2d_pace",
  "ReceiveCoilActiveElements": "HC1-6",
  "ReceiveCoilName": "HeadNeck_64",
  "ReconMatrixPE": 70,
  "RefLinesPE": 24,
  "RepetitionTime": 2,
  "SAR": 0.139802,
  "ScanOptions": "FS",
  "ScanningSequence": "EP",
  "SequenceName": "*epfid2d1_70",
  "SequenceVariant": "SK",
  "SeriesDescription": "BOLD_ep2d_3x3x3_response2",
  "SeriesNumber": 7,
  "ShimSetting": [5077, 3760, 4425, 79, 10, -50, -61, 86],
  "SliceThickness": 3,
  "SliceTiming": [0.99, 0, 1.0375, 0.0475, 1.085, 0.095, 1.13, 0.14, 1.1775, 0.1875, 1.225, 0.235, 1.2725, 0.2825, 1.32, 0.33, 1.3675, 0.3775, 1.415, 0.425, 1.46, 0.47, 1.5075, 0.5175, 1.555, 0.565, 1.6025, 0.6125, 1.65, 0.66, 1.6975, 0.7075, 1.745, 0.755, 1.79, 0.8, 1.8375, 0.8475, 1.885, 0.895, 1.9325, 0.9425],
  "SoftwareVersions": "syngo MR E11",
  "SpacingBetweenSlices": 3,
  "StationName": "AWP66061",
  "TaskName": "response",
  "TotalReadoutTime": 0.018975,
  "TxRefAmp": 248.251,
  "dcmmeta_affine": [
    [-2.999004602432251, -0.003664172487333417, 0.07719075679779053, 103.51659393310547],
    [-0.014377289451658726, 2.9707629680633545, -0.41756513714790344, -91.33444213867188],
    [0.0759284719824791, 0.4177964925765991, 2.969794750213623, -48.753509521484375],
    [0.0, 0.0, 0.0, 1.0]
],
  "dcmmeta_reorient_transform": [
    [0.0, -1.0, 0.0, 69.0],
    [1.0, 0.0, 0.0, 0.0],
    [0.0, 0.0, -1.0, 41.0],
    [0.0, 0.0, 0.0, 1.0]
],
  "dcmmeta_shape": [70, 70, 42, 341],
  "dcmmeta_slice_dim": 2,
  "dcmmeta_version": 0.6,
  "global": {
    "const": {
      "AcquisitionMatrix": [70, 0, 0, 70],
      "AngioFlag": "N",
      "BitsAllocated": 16,
      "BitsStored": 12,
      "BodyPartExamined": "HEAD",
      "Columns": 490,
      "EchoNumbers": 1,
      "EchoTime": 22.0,
      "EchoTrainLength": 35,
      "FlipAngle": 90.0,
      "HighBit": 11,
      "ImageOrientationPatient": [0.99966817610639, 0.00479242984673, 0.02530949024147, -0.0012213908114, 0.99025432501835, -0.1392655017833],
      "ImagePositionPatient": [-735.45006283099, -723.40748866235, 173.62832735775],
      "ImageType": [
        "ORIGINAL",
        "PRIMARY",
        "M",
        "ND",
        "NORM",
        "MOSAIC"
],
      "ImagedNucleus": "1H",
      "ImagingFrequency": 123.255819,
      "InPlanePhaseEncodingDirection": "COL",
      "MRAcquisitionType": "2D",
      "MagneticFieldStrength": 3.0,
      "Manufacturer": "SIEMENS",
      "ManufacturerModelName": "Prisma",
      "Modality": "MR",
      "NumberOfAverages": 1.0,
      "NumberOfPhaseEncodingSteps": 70,
      "PercentPhaseFieldOfView": 100.0,
      "PercentSampling": 100.0,
      "PerformedProcedureStepStartTime": "122744.430000",
      "PhotometricInterpretation": "MONOCHROME2",
      "PixelBandwidth": 2165.0,
      "PixelRepresentation": 0,
      "PixelSpacing": [3.0, 3.0],
      "ProtocolName": "BOLD_ep2d_3x3x3_response2",
      "RepetitionTime": 2000.0,
      "Rows": 490,
      "SAR": 0.13980196689443,
      "SamplesPerPixel": 1,
      "ScanOptions": "FS",
      "ScanningSequence": "EP",
      "SequenceName": "*epfid2d1_70",
      "SequenceVariant": "SK",
      "SeriesDescription": "BOLD_ep2d_3x3x3_response2",
      "SeriesNumber": 7,
      "SeriesTime": "131954.695000",
      "SliceLocation": 90.11356704657,
      "SliceThickness": 3.0,
      "SmallestImagePixelValue": 0,
      "SoftwareVersions": "syngo MR E11",
      "SpacingBetweenSlices": 3.00000009061,
      "SpecificCharacterSet": "ISO_IR 100",
      "StudyID": "1",
      "StudyTime": "122744.361000",
      "TransmitCoilName": "Body",
      "VariableFlipAngleFlag": "N",
      "WindowCenterWidthExplanation": "Algo1",
      "dBdt": 0.0},
    "slices": {}
  },
  "time": {
    "samples": {
      "AcquisitionNumber": [1, 2, 3, 4, 5, 6, 7, 8, 9, 10, 11, 12, 13, 14, 15, 16, 17, 18, 19, 20, 21, 22, 23, 24, 25, 26, 27, 28, 29, 30, 31, 32, 33, 34, 35, 36, 37, 38, 39, 40, 41, 42, 43, 44, 45, 46, 47, 48, 49, 50, 51, 52, 53, 54, 55, 56, 57, 58, 59, 60, 61, 62, 63, 64, 65, 66, 67, 68, 69, 70, 71, 72, 73, 74, 75, 76, 77, 78, 79, 80, 81, 82, 83, 84, 85, 86, 87, 88, 89, 90, 91, 92, 93, 94, 95, 96, 97, 98, 99, 100, 101, 102, 103, 104, 105, 106, 107, 108, 109, 110, 111, 112, 113, 114, 115, 116, 117, 118, 119, 120, 121, 122, 123, 124, 125, 126, 127, 128, 129, 130, 131, 132, 133, 134, 135, 136, 137, 138, 139, 140, 141, 142, 143, 144, 145, 146, 147, 148, 149, 150, 151, 152, 153, 154, 155, 156, 157, 158, 159, 160, 161, 162, 163, 164, 165, 166, 167, 168, 169, 170, 171, 172, 173, 174, 175, 176, 177, 178, 179, 180, 181, 182, 183, 184, 185, 186, 187, 188, 189, 190, 191, 192, 193, 194, 195, 196, 197, 198, 199, 200, 201, 202, 203, 204, 205, 206, 207, 208, 209, 210, 211, 212, 213, 214, 215, 216, 217, 218, 219, 220, 221, 222, 223, 224, 225, 226, 227, 228, 229, 230, 231, 232, 233, 234, 235, 236, 237, 238, 239, 240, 241, 242, 243, 244, 245, 246, 247, 248, 249, 250, 251, 252, 253, 254, 255, 256, 257, 258, 259, 260, 261, 262, 263, 264, 265, 266, 267, 268, 269, 270, 271, 272, 273, 274, 275, 276, 277, 278, 279, 280, 281, 282, 283, 284, 285, 286, 287, 288, 289, 290, 291, 292, 293, 294, 295, 296, 297, 298, 299, 300, 301, 302, 303, 304, 305, 306, 307, 308, 309, 310, 311, 312, 313, 314, 315, 316, 317, 318, 319, 320, 321, 322, 323, 324, 325, 326, 327, 328, 329, 330, 331, 332, 333, 334, 335, 336, 337, 338, 339, 340, 341],
      "AcquisitionTime": ["131911.910000", "131913.910000", "131915.910000", "131917.910000", "131919.910000", "131921.910000", "131923.910000", "131925.910000", "131927.910000", "131929.910000", "131931.910000", "131933.910000", "131935.910000", "131937.910000", "131939.910000", "131941.910000", "131943.910000", "131945.910000", "131947.910000", "131949.910000", "131951.910000", "131953.910000", "131955.910000", "131957.910000", "131959.910000", "132001.910000", "132003.910000", "132005.910000", "132007.910000", "132009.910000", "132011.910000", "132013.910000", "132015.910000", "132017.910000", "132019.910000", "132021.910000", "132023.910000", "132025.910000", "132027.910000", "132029.910000", "132031.910000", "132033.910000", "132035.910000", "132037.910000", "132039.910000", "132041.910000", "132043.910000", "132045.910000", "132047.910000", "132049.910000", "132051.910000", "132053.910000", "132055.910000", "132057.910000", "132059.910000", "132101.910000", "132103.910000", "132105.910000", "132107.910000", "132109.910000", "132111.910000", "132113.910000", "132115.910000", "132117.910000", "132119.910000", "132121.910000", "132123.910000", "132125.910000", "132127.910000", "132129.910000", "132131.910000", "132133.910000", "132135.910000", "132137.910000", "132139.910000", "132141.910000", "132143.910000", "132145.910000", "132147.910000", "132149.910000", "132151.910000", "132153.910000", "132155.910000", "132157.910000", "132159.910000", "132201.910000", "132203.910000", "132205.910000", "132207.910000", "132209.910000", "132211.910000", "132213.910000", "132215.910000", "132217.910000", "132219.910000", "132221.910000", "132223.910000", "132225.910000", "132227.910000", "132229.910000", "132231.910000", "132233.910000", "132235.910000", "132237.910000", "132239.910000", "132241.910000", "132243.910000", "132245.910000", "132247.910000", "132249.910000", "132251.910000", "132253.910000", "132255.910000", "132257.910000", "132259.910000", "132301.910000", "132303.910000", "132305.910000", "132307.910000", "132309.910000", "132311.910000", "132313.910000", "132315.910000", "132317.910000", "132319.910000", "132321.910000", "132323.910000", "132325.910000", "132327.910000", "132329.910000", "132331.910000", "132333.910000", "132335.910000", "132337.910000", "132339.910000", "132341.910000", "132343.910000", "132345.910000", "132347.910000", "132349.910000", "132351.910000", "132353.910000", "132355.910000", "132357.910000", "132359.910000", "132401.910000", "132403.910000", "132405.910000", "132407.910000", "132409.910000", "132411.910000", "132413.910000", "132415.910000", "132417.910000", "132419.910000", "132421.910000", "132423.910000", "132425.910000", "132427.910000", "132429.910000", "132431.910000", "132433.910000", "132435.910000", "132437.910000", "132439.910000", "132441.910000", "132443.910000", "132445.910000", "132447.910000", "132449.910000", "132451.910000", "132453.910000", "132455.910000", "132457.910000", "132459.910000", "132501.910000", "132503.910000", "132505.910000", "132507.910000", "132509.910000", "132511.910000", "132513.910000", "132515.910000", "132517.910000", "132519.910000", "132521.910000", "132523.910000", "132525.910000", "132527.910000", "132529.910000", "132531.910000", "132533.910000", "132535.910000", "132537.910000", "132539.910000", "132541.910000", "132543.910000", "132545.910000", "132547.910000", "132549.910000", "132551.910000", "132553.910000", "132555.910000", "132557.910000", "132559.910000", "132601.910000", "132603.910000", "132605.910000", "132607.910000", "132609.910000", "132611.910000", "132613.910000", "132615.910000", "132617.910000", "132619.910000", "132621.910000", "132623.910000", "132625.910000", "132627.910000", "132629.910000", "132631.910000", "132633.910000", "132635.910000", "132637.910000", "132639.910000", "132641.910000", "132643.910000", "132645.910000", "132647.910000", "132649.910000", "132651.910000", "132653.910000", "132655.910000", "132657.910000", "132659.910000", "132701.910000", "132703.910000", "132705.910000", "132707.910000", "132709.910000", "132711.910000", "132713.910000", "132715.910000", "132717.910000", "132719.910000", "132721.910000", "132723.910000", "132725.910000", "132727.910000", "132729.910000", "132731.910000", "132733.910000", "132735.910000", "132737.910000", "132739.910000", "132741.910000", "132743.910000", "132745.910000", "132747.910000", "132749.910000", "132751.910000", "132753.910000", "132755.910000", "132757.910000", "132759.910000", "132801.910000", "132803.910000", "132805.910000", "132807.910000", "132809.910000", "132811.910000", "132813.910000", "132815.910000", "132817.910000", "132819.910000", "132821.910000", "132823.910000", "132825.910000", "132827.910000", "132829.910000", "132831.910000", "132833.910000", "132835.910000", "132837.910000", "132839.910000", "132841.910000", "132843.910000", "132845.910000", "132847.910000", "132849.910000", "132851.910000", "132853.910000", "132855.910000", "132857.910000", "132859.910000", "132901.910000", "132903.910000", "132905.910000", "132907.910000", "132909.910000", "132911.910000", "132913.910000", "132915.910000", "132917.910000", "132919.910000", "132921.910000", "132923.910000", "132925.910000", "132927.910000", "132929.910000", "132931.910000", "132933.910000", "132935.910000", "132937.910000", "132939.910000", "132941.910000", "132943.910000", "132945.910000", "132947.910000", "132949.910000", "132951.910000", "132953.910000", "132955.910000", "132957.910000", "132959.910000", "133001.910000", "133003.910000", "133005.910000", "133007.910000", "133009.910000", "133011.910000", "133013.910000", "133015.910000", "133017.910000", "133019.910000", "133021.910000", "133023.910000", "133025.910000", "133027.910000", "133029.910000", "133031.910000"],
      "ContentTime": ["131954.698000", "131954.702000", "131954.715000", "131954.718000", "131954.720000", "131954.728000", "131954.730000", "131954.733000", "131954.736000", "131954.738000", "131954.741000", "131954.743000", "131954.746000", "131954.748000", "131954.751000", "131954.757000", "131954.759000", "131954.762000", "131954.764000", "131954.767000", "131954.770000", "132034.695000", "132034.705000", "132034.708000", "132034.711000", "132034.714000", "132034.716000", "132034.719000", "132034.721000", "132034.724000", "132034.727000", "132034.730000", "132034.732000", "132034.735000", "132034.737000", "132034.740000", "132034.743000", "132034.745000", "132034.748000", "132034.751000", "132034.753000", "132114.695000", "132114.697000", "132114.700000", "132114.703000", "132114.706000", "132114.708000", "132114.711000", "132114.714000", "132114.716000", "132114.719000", "132114.722000", "132114.724000", "132114.727000", "132114.729000", "132114.732000", "132114.735000", "132114.737000", "132114.740000", "132114.749000", "132114.756000", "132154.694000", "132154.697000", "132154.700000", "132154.702000", "132154.705000", "132154.708000", "132154.711000", "132154.713000", "132154.716000", "132154.719000", "132154.721000", "132154.724000", "132154.727000", "132154.729000", "132154.732000", "132154.735000", "132154.737000", "132154.740000", "132154.743000", "132154.745000", "132234.694000", "132234.697000", "132234.699000", "132234.702000", "132234.705000", "132234.707000", "132234.710000", "132234.713000", "132234.715000", "132234.718000", "132234.721000", "132234.723000", "132234.726000", "132234.729000", "132234.731000", "132234.734000", "132234.737000", "132234.739000", "132234.742000", "132234.745000", "132314.695000", "132314.698000", "132314.700000", "132314.703000", "132314.705000", "132314.708000", "132314.711000", "132314.713000", "132314.716000", "132314.719000", "132314.721000", "132314.724000", "132314.727000", "132314.729000", "132314.732000", "132314.735000", "132314.737000", "132314.740000", "132314.743000", "132314.745000", "132354.695000", "132354.698000", "132354.700000", "132354.703000", "132354.706000", "132354.708000", "132354.711000", "132354.714000", "132354.716000", "132354.719000", "132354.722000", "132354.725000", "132354.735000", "132354.738000", "132354.740000", "132354.743000", "132354.746000", "132354.749000", "132354.751000", "132354.754000", "132434.694000", "132434.697000", "132434.700000", "132434.702000", "132434.705000", "132434.708000", "132434.710000", "132434.713000", "132434.716000", "132434.718000", "132434.721000", "132434.723000", "132434.726000", "132434.729000", "132434.731000", "132434.734000", "132434.737000", "132434.739000", "132434.742000", "132434.745000", "132514.695000", "132514.697000", "132514.700000", "132514.703000", "132514.705000", "132514.708000", "132514.711000", "132514.714000", "132514.716000", "132514.719000", "132514.722000", "132514.724000", "132514.727000", "132514.730000", "132514.732000", "132514.735000", "132514.737000", "132514.740000", "132514.743000", "132514.753000", "132554.695000", "132554.698000", "132554.700000", "132554.703000", "132554.706000", "132554.708000", "132554.711000", "132554.714000", "132554.716000", "132554.719000", "132554.722000", "132554.724000", "132554.727000", "132554.729000", "132554.732000", "132554.735000", "132554.737000", "132554.740000", "132554.743000", "132554.745000", "132634.694000", "132634.696000", "132634.699000", "132634.702000", "132634.704000", "132634.707000", "132634.710000", "132634.712000", "132634.715000", "132634.718000", "132634.720000", "132634.723000", "132634.726000", "132634.729000", "132634.731000", "132634.734000", "132634.736000", "132634.739000", "132634.742000", "132634.744000", "132714.694000", "132714.697000", "132714.699000", "132714.702000", "132714.704000", "132714.708000", "132714.711000", "132714.713000", "132714.716000", "132714.719000", "132714.721000", "132714.724000", "132714.727000", "132714.729000", "132714.732000", "132714.735000", "132714.737000", "132714.740000", "132714.742000", "132714.745000", "132754.695000", "132754.697000", "132754.700000", "132754.703000", "132754.705000", "132754.708000", "132754.711000", "132754.713000", "132754.716000", "132754.719000", "132754.721000", "132754.724000", "132754.726000", "132754.729000", "132754.742000", "132754.745000", "132754.747000", "132754.750000", "132754.753000", "132754.755000", "132834.695000", "132834.698000", "132834.700000", "132834.703000", "132834.705000", "132834.708000", "132834.711000", "132834.713000", "132834.716000", "132834.719000", "132834.721000", "132834.724000", "132834.726000", "132834.729000", "132834.732000", "132834.734000", "132834.737000", "132834.740000", "132834.742000", "132834.745000", "132914.694000", "132914.696000", "132914.699000", "132914.702000", "132914.705000", "132914.707000", "132914.710000", "132914.712000", "132914.715000", "132914.718000", "132914.720000", "132914.723000", "132914.726000", "132914.728000", "132914.731000", "132914.734000", "132914.736000", "132914.739000", "132914.742000", "132914.745000", "132954.695000", "132954.697000", "132954.700000", "132954.703000", "132954.706000", "132954.708000", "132954.711000", "132954.714000", "132954.716000", "132954.719000", "132954.722000", "132954.724000", "132954.727000", "132954.730000", "132954.732000", "132954.735000", "132954.738000", "132954.740000", "132954.743000", "132954.746000", "133033.044000", "133033.047000", "133033.050000", "133033.053000", "133033.056000", "133033.058000", "133033.061000", "133033.064000", "133033.066000", "133033.069000", "133033.072000", "133033.077000", "133033.082000", "133033.085000", "133033.088000", "133033.091000", "133033.095000", "133033.098000", "133033.101000", "133033.105000"],
      "DataSetTrailingPadding": [
        "\u0000\u0000\u0000\u0000\u0000\u0000\u0000\u0000\u0000\u0000\u0000\u0000\u0000\u0000\u0000\u0000\u0000\u0000\u0000\u0000\u0000\u0000\u0000\u0000\u0000\u0000\u0000\u0000\u0000\u0000\u0000\u0000\u0000\u0000\u0000\u0000\u0000\u0000\u0000\u0000\u0000\u0000\u0000\u0000\u0000\u0000\u0000\u0000",
        "\u0000\u0000\u0000\u0000\u0000\u0000\u0000\u0000\u0000\u0000\u0000\u0000\u0000\u0000\u0000\u0000\u0000\u0000\u0000\u0000\u0000\u0000\u0000\u0000\u0000\u0000\u0000\u0000\u0000\u0000\u0000\u0000\u0000\u0000\u0000\u0000\u0000\u0000\u0000\u0000\u0000\u0000\u0000\u0000\u0000\u0000\u0000\u0000",
        "\u0000\u0000\u0000\u0000\u0000\u0000\u0000\u0000\u0000\u0000\u0000\u0000\u0000\u0000\u0000\u0000\u0000\u0000\u0000\u0000\u0000\u0000\u0000\u0000\u0000\u0000\u0000\u0000\u0000\u0000\u0000\u0000\u0000\u0000\u0000\u0000\u0000\u0000\u0000\u0000\u0000\u0000\u0000\u0000\u0000\u0000\u0000\u0000",
        "\u0000\u0000\u0000\u0000\u0000\u0000\u0000\u0000\u0000\u0000\u0000\u0000\u0000\u0000\u0000\u0000\u0000\u0000\u0000\u0000\u0000\u0000\u0000\u0000\u0000\u0000\u0000\u0000\u0000\u0000\u0000\u0000\u0000\u0000\u0000\u0000\u0000\u0000\u0000\u0000\u0000\u0000\u0000\u0000\u0000\u0000\u0000\u0000",
        "\u0000\u0000\u0000\u0000\u0000\u0000\u0000\u0000\u0000\u0000\u0000\u0000\u0000\u0000\u0000\u0000\u0000\u0000\u0000\u0000\u0000\u0000\u0000\u0000\u0000\u0000\u0000\u0000\u0000\u0000\u0000\u0000\u0000\u0000\u0000\u0000\u0000\u0000\u0000\u0000\u0000\u0000\u0000\u0000\u0000\u0000",
        "\u0000\u0000\u0000\u0000\u0000\u0000\u0000\u0000\u0000\u0000\u0000\u0000\u0000\u0000\u0000\u0000\u0000\u0000\u0000\u0000\u0000\u0000\u0000\u0000\u0000\u0000\u0000\u0000\u0000\u0000\u0000\u0000\u0000\u0000\u0000\u0000\u0000\u0000\u0000\u0000\u0000\u0000\u0000\u0000\u0000\u0000",
        "\u0000\u0000\u0000\u0000\u0000\u0000\u0000\u0000\u0000\u0000\u0000\u0000\u0000\u0000\u0000\u0000\u0000\u0000\u0000\u0000\u0000\u0000\u0000\u0000\u0000\u0000\u0000\u0000\u0000\u0000\u0000\u0000\u0000\u0000\u0000\u0000\u0000\u0000\u0000\u0000\u0000\u0000\u0000\u0000\u0000\u0000",
        "\u0000\u0000\u0000\u0000\u0000\u0000\u0000\u0000\u0000\u0000\u0000\u0000\u0000\u0000\u0000\u0000\u0000\u0000\u0000\u0000\u0000\u0000\u0000\u0000\u0000\u0000\u0000\u0000\u0000\u0000\u0000\u0000\u0000\u0000\u0000\u0000\u0000\u0000\u0000\u0000\u0000\u0000\u0000\u0000\u0000\u0000",
        "\u0000\u0000\u0000\u0000\u0000\u0000\u0000\u0000\u0000\u0000\u0000\u0000\u0000\u0000\u0000\u0000\u0000\u0000\u0000\u0000\u0000\u0000\u0000\u0000\u0000\u0000\u0000\u0000\u0000\u0000\u0000\u0000\u0000\u0000\u0000\u0000\u0000\u0000\u0000\u0000\u0000\u0000\u0000\u0000\u0000\u0000",
        "\u0000\u0000\u0000\u0000\u0000\u0000\u0000\u0000\u0000\u0000\u0000\u0000\u0000\u0000\u0000\u0000\u0000\u0000\u0000\u0000\u0000\u0000\u0000\u0000\u0000\u0000\u0000\u0000\u0000\u0000\u0000\u0000\u0000\u0000\u0000\u0000\u0000\u0000\u0000\u0000\u0000\u0000\u0000\u0000\u0000\u0000",
        "\u0000\u0000\u0000\u0000\u0000\u0000\u0000\u0000\u0000\u0000\u0000\u0000\u0000\u0000\u0000\u0000\u0000\u0000\u0000\u0000\u0000\u0000\u0000\u0000\u0000\u0000\u0000\u0000\u0000\u0000\u0000\u0000\u0000\u0000\u0000\u0000\u0000\u0000\u0000\u0000\u0000\u0000\u0000\u0000\u0000\u0000",
        "\u0000\u0000\u0000\u0000\u0000\u0000\u0000\u0000\u0000\u0000\u0000\u0000\u0000\u0000\u0000\u0000\u0000\u0000\u0000\u0000\u0000\u0000\u0000\u0000\u0000\u0000\u0000\u0000\u0000\u0000\u0000\u0000\u0000\u0000\u0000\u0000\u0000\u0000\u0000\u0000\u0000\u0000\u0000\u0000\u0000\u0000",
        "\u0000\u0000\u0000\u0000\u0000\u0000\u0000\u0000\u0000\u0000\u0000\u0000\u0000\u0000\u0000\u0000\u0000\u0000\u0000\u0000\u0000\u0000\u0000\u0000\u0000\u0000\u0000\u0000\u0000\u0000\u0000\u0000\u0000\u0000\u0000\u0000\u0000\u0000\u0000\u0000\u0000\u0000\u0000\u0000\u0000\u0000",
        "\u0000\u0000\u0000\u0000\u0000\u0000\u0000\u0000\u0000\u0000\u0000\u0000\u0000\u0000\u0000\u0000\u0000\u0000\u0000\u0000\u0000\u0000\u0000\u0000\u0000\u0000\u0000\u0000\u0000\u0000\u0000\u0000\u0000\u0000\u0000\u0000\u0000\u0000\u0000\u0000\u0000\u0000\u0000\u0000\u0000\u0000",
        "\u0000\u0000\u0000\u0000\u0000\u0000\u0000\u0000\u0000\u0000\u0000\u0000\u0000\u0000\u0000\u0000\u0000\u0000\u0000\u0000\u0000\u0000\u0000\u0000\u0000\u0000\u0000\u0000\u0000\u0000\u0000\u0000\u0000\u0000\u0000\u0000\u0000\u0000\u0000\u0000\u0000\u0000\u0000\u0000\u0000\u0000",
        "\u0000\u0000\u0000\u0000\u0000\u0000\u0000\u0000\u0000\u0000\u0000\u0000\u0000\u0000\u0000\u0000\u0000\u0000\u0000\u0000\u0000\u0000\u0000\u0000\u0000\u0000\u0000\u0000\u0000\u0000\u0000\u0000\u0000\u0000\u0000\u0000\u0000\u0000\u0000\u0000\u0000\u0000\u0000\u0000\u0000\u0000",
        "\u0000\u0000\u0000\u0000\u0000\u0000\u0000\u0000\u0000\u0000\u0000\u0000\u0000\u0000\u0000\u0000\u0000\u0000\u0000\u0000\u0000\u0000\u0000\u0000\u0000\u0000\u0000\u0000\u0000\u0000\u0000\u0000\u0000\u0000\u0000\u0000\u0000\u0000\u0000\u0000\u0000\u0000\u0000\u0000\u0000\u0000",
        "\u0000\u0000\u0000\u0000\u0000\u0000\u0000\u0000\u0000\u0000\u0000\u0000\u0000\u0000\u0000\u0000\u0000\u0000\u0000\u0000\u0000\u0000\u0000\u0000\u0000\u0000\u0000\u0000\u0000\u0000\u0000\u0000\u0000\u0000\u0000\u0000\u0000\u0000\u0000\u0000\u0000\u0000\u0000\u0000\u0000\u0000",
        "\u0000\u0000\u0000\u0000\u0000\u0000\u0000\u0000\u0000\u0000\u0000\u0000\u0000\u0000\u0000\u0000\u0000\u0000\u0000\u0000\u0000\u0000\u0000\u0000\u0000\u0000\u0000\u0000\u0000\u0000\u0000\u0000\u0000\u0000\u0000\u0000\u0000\u0000\u0000\u0000\u0000\u0000\u0000\u0000\u0000\u0000",
        "\u0000\u0000\u0000\u0000\u0000\u0000\u0000\u0000\u0000\u0000\u0000\u0000\u0000\u0000\u0000\u0000\u0000\u0000\u0000\u0000\u0000\u0000\u0000\u0000\u0000\u0000\u0000\u0000\u0000\u0000\u0000\u0000\u0000\u0000\u0000\u0000\u0000\u0000\u0000\u0000\u0000\u0000\u0000\u0000\u0000\u0000",
        "\u0000\u0000\u0000\u0000\u0000\u0000\u0000\u0000\u0000\u0000\u0000\u0000\u0000\u0000\u0000\u0000\u0000\u0000\u0000\u0000\u0000\u0000\u0000\u0000\u0000\u0000\u0000\u0000\u0000\u0000\u0000\u0000\u0000\u0000\u0000\u0000\u0000\u0000\u0000\u0000\u0000\u0000\u0000\u0000\u0000\u0000",
        "\u0000\u0000\u0000\u0000\u0000\u0000\u0000\u0000\u0000\u0000\u0000\u0000\u0000\u0000\u0000\u0000\u0000\u0000\u0000\u0000\u0000\u0000\u0000\u0000\u0000\u0000\u0000\u0000\u0000\u0000\u0000\u0000\u0000\u0000\u0000\u0000\u0000\u0000\u0000\u0000\u0000\u0000\u0000\u0000\u0000\u0000",
        "\u0000\u0000\u0000\u0000\u0000\u0000\u0000\u0000\u0000\u0000\u0000\u0000\u0000\u0000\u0000\u0000\u0000\u0000\u0000\u0000\u0000\u0000\u0000\u0000\u0000\u0000\u0000\u0000\u0000\u0000\u0000\u0000\u0000\u0000\u0000\u0000\u0000\u0000\u0000\u0000\u0000\u0000\u0000\u0000\u0000\u0000",
        "\u0000\u0000\u0000\u0000\u0000\u0000\u0000\u0000\u0000\u0000\u0000\u0000\u0000\u0000\u0000\u0000\u0000\u0000\u0000\u0000\u0000\u0000\u0000\u0000\u0000\u0000\u0000\u0000\u0000\u0000\u0000\u0000\u0000\u0000\u0000\u0000\u0000\u0000\u0000\u0000\u0000\u0000\u0000\u0000\u0000\u0000",
        "\u0000\u0000\u0000\u0000\u0000\u0000\u0000\u0000\u0000\u0000\u0000\u0000\u0000\u0000\u0000\u0000\u0000\u0000\u0000\u0000\u0000\u0000\u0000\u0000\u0000\u0000\u0000\u0000\u0000\u0000\u0000\u0000\u0000\u0000\u0000\u0000\u0000\u0000\u0000\u0000\u0000\u0000\u0000\u0000\u0000\u0000",
        "\u0000\u0000\u0000\u0000\u0000\u0000\u0000\u0000\u0000\u0000\u0000\u0000\u0000\u0000\u0000\u0000\u0000\u0000\u0000\u0000\u0000\u0000\u0000\u0000\u0000\u0000\u0000\u0000\u0000\u0000\u0000\u0000\u0000\u0000\u0000\u0000\u0000\u0000\u0000\u0000\u0000\u0000\u0000\u0000\u0000\u0000",
        "\u0000\u0000\u0000\u0000\u0000\u0000\u0000\u0000\u0000\u0000\u0000\u0000\u0000\u0000\u0000\u0000\u0000\u0000\u0000\u0000\u0000\u0000\u0000\u0000\u0000\u0000\u0000\u0000\u0000\u0000\u0000\u0000\u0000\u0000\u0000\u0000\u0000\u0000\u0000\u0000\u0000\u0000\u0000\u0000\u0000\u0000",
        "\u0000\u0000\u0000\u0000\u0000\u0000\u0000\u0000\u0000\u0000\u0000\u0000\u0000\u0000\u0000\u0000\u0000\u0000\u0000\u0000\u0000\u0000\u0000\u0000\u0000\u0000\u0000\u0000\u0000\u0000\u0000\u0000\u0000\u0000\u0000\u0000\u0000\u0000\u0000\u0000\u0000\u0000\u0000\u0000\u0000\u0000",
        "\u0000\u0000\u0000\u0000\u0000\u0000\u0000\u0000\u0000\u0000\u0000\u0000\u0000\u0000\u0000\u0000\u0000\u0000\u0000\u0000\u0000\u0000\u0000\u0000\u0000\u0000\u0000\u0000\u0000\u0000\u0000\u0000\u0000\u0000\u0000\u0000\u0000\u0000\u0000\u0000\u0000\u0000\u0000\u0000\u0000\u0000",
        "\u0000\u0000\u0000\u0000\u0000\u0000\u0000\u0000\u0000\u0000\u0000\u0000\u0000\u0000\u0000\u0000\u0000\u0000\u0000\u0000\u0000\u0000\u0000\u0000\u0000\u0000\u0000\u0000\u0000\u0000\u0000\u0000\u0000\u0000\u0000\u0000\u0000\u0000\u0000\u0000\u0000\u0000\u0000\u0000\u0000\u0000",
        "\u0000\u0000\u0000\u0000\u0000\u0000\u0000\u0000\u0000\u0000\u0000\u0000\u0000\u0000\u0000\u0000\u0000\u0000\u0000\u0000\u0000\u0000\u0000\u0000\u0000\u0000\u0000\u0000\u0000\u0000\u0000\u0000\u0000\u0000\u0000\u0000\u0000\u0000\u0000\u0000\u0000\u0000\u0000\u0000\u0000\u0000",
        "\u0000\u0000\u0000\u0000\u0000\u0000\u0000\u0000\u0000\u0000\u0000\u0000\u0000\u0000\u0000\u0000\u0000\u0000\u0000\u0000\u0000\u0000\u0000\u0000\u0000\u0000\u0000\u0000\u0000\u0000\u0000\u0000\u0000\u0000\u0000\u0000\u0000\u0000\u0000\u0000\u0000\u0000\u0000\u0000\u0000\u0000",
        "\u0000\u0000\u0000\u0000\u0000\u0000\u0000\u0000\u0000\u0000\u0000\u0000\u0000\u0000\u0000\u0000\u0000\u0000\u0000\u0000\u0000\u0000\u0000\u0000\u0000\u0000\u0000\u0000\u0000\u0000\u0000\u0000\u0000\u0000\u0000\u0000\u0000\u0000\u0000\u0000\u0000\u0000\u0000\u0000\u0000\u0000",
        "\u0000\u0000\u0000\u0000\u0000\u0000\u0000\u0000\u0000\u0000\u0000\u0000\u0000\u0000\u0000\u0000\u0000\u0000\u0000\u0000\u0000\u0000\u0000\u0000\u0000\u0000\u0000\u0000\u0000\u0000\u0000\u0000\u0000\u0000\u0000\u0000\u0000\u0000\u0000\u0000\u0000\u0000\u0000\u0000\u0000\u0000",
        "\u0000\u0000\u0000\u0000\u0000\u0000\u0000\u0000\u0000\u0000\u0000\u0000\u0000\u0000\u0000\u0000\u0000\u0000\u0000\u0000\u0000\u0000\u0000\u0000\u0000\u0000\u0000\u0000\u0000\u0000\u0000\u0000\u0000\u0000\u0000\u0000\u0000\u0000\u0000\u0000\u0000\u0000\u0000\u0000\u0000\u0000",
        "\u0000\u0000\u0000\u0000\u0000\u0000\u0000\u0000\u0000\u0000\u0000\u0000\u0000\u0000\u0000\u0000\u0000\u0000\u0000\u0000\u0000\u0000\u0000\u0000\u0000\u0000\u0000\u0000\u0000\u0000\u0000\u0000\u0000\u0000\u0000\u0000\u0000\u0000\u0000\u0000\u0000\u0000\u0000\u0000\u0000\u0000",
        "\u0000\u0000\u0000\u0000\u0000\u0000\u0000\u0000\u0000\u0000\u0000\u0000\u0000\u0000\u0000\u0000\u0000\u0000\u0000\u0000\u0000\u0000\u0000\u0000\u0000\u0000\u0000\u0000\u0000\u0000\u0000\u0000\u0000\u0000\u0000\u0000\u0000\u0000\u0000\u0000\u0000\u0000\u0000\u0000\u0000\u0000",
        "\u0000\u0000\u0000\u0000\u0000\u0000\u0000\u0000\u0000\u0000\u0000\u0000\u0000\u0000\u0000\u0000\u0000\u0000\u0000\u0000\u0000\u0000\u0000\u0000\u0000\u0000\u0000\u0000\u0000\u0000\u0000\u0000\u0000\u0000\u0000\u0000\u0000\u0000\u0000\u0000\u0000\u0000\u0000\u0000\u0000\u0000",
        "\u0000\u0000\u0000\u0000\u0000\u0000\u0000\u0000\u0000\u0000\u0000\u0000\u0000\u0000\u0000\u0000\u0000\u0000\u0000\u0000\u0000\u0000\u0000\u0000\u0000\u0000\u0000\u0000\u0000\u0000\u0000\u0000\u0000\u0000\u0000\u0000\u0000\u0000\u0000\u0000\u0000\u0000\u0000\u0000\u0000\u0000",
