{
  "AcquisitionMatrixPE": 70,
  "AcquisitionNumber": 1,
  "AcquisitionTime": "13:06:47.200000",
  "BandwidthPerPixelPhaseEncode": 51.948,
  "BaseResolution": 70,
  "BodyPartExamined": "HEAD",
  "CoilCombinationMethod": "Sum of Squares",
  "ConsistencyInfo": "N4_VE11C_LATEST_20160120",
  "ConversionSoftware": "dcm2niix",
  "ConversionSoftwareVersion": "v1.0.20220720",
  "DerivedVendorReportedEchoSpacing": 0.000550001,
  "DeviceSerialNumber": "66061",
  "DwellTime": 3.3e-06,
  "EchoTime": 0.022,
  "EchoTrainLength": 35,
  "EffectiveEchoSpacing": 0.000275,
  "FlipAngle": 90,
  "HeudiconvVersion": "1.1.1",
  "ImageOrientationPatientDICOM": [0.999668, 0.00479243, 0.0253095, -0.00122139, 0.990254, -0.139266],
  "ImageOrientationText": "Tra>Cor(-8.0)>Sag(1.5)",
  "ImageType": [
    "ORIGINAL",
    "PRIMARY",
    "M",
    "ND",
    "NORM",
    "MOSAIC"
],
  "ImagingFrequency": 123.256,
  "InPlanePhaseEncodingDirectionDICOM": "COL",
  "InstitutionAddress": "Street StreetNo,City/1c4204/,District,KR,ZIP",
  "InstitutionName": "SKKU",
  "InstitutionalDepartmentName": "Department",
  "MRAcquisitionType": "2D",
  "MagneticFieldStrength": 3,
  "Manufacturer": "Siemens",
  "ManufacturersModelName": "Prisma",
  "MatrixCoilMode": "GRAPPA",
  "Modality": "MR",
  "NonlinearGradientCorrection": false,
  "ParallelReductionFactorInPlane": 2,
  "PartialFourier": 1,
  "PatientPosition": "HFS",
  "PercentPhaseFOV": 100,
  "PercentSampling": 100,
  "PhaseEncodingDirection": "j-",
  "PhaseEncodingSteps": 70,
  "PhaseResolution": 1,
  "PixelBandwidth": 2165,
  "ProcedureStepDescription": "Head^PI:Others",
  "ProtocolName": "BOLD_ep2d_3x3x3_response1",
  "PulseSequenceDetails": "%SiemensSeq%\\ep2d_pace",
  "ReceiveCoilActiveElements": "HC1-6",
  "ReceiveCoilName": "HeadNeck_64",
  "ReconMatrixPE": 70,
  "RefLinesPE": 24,
  "RepetitionTime": 2,
  "SAR": 0.139802,
  "ScanOptions": "FS",
  "ScanningSequence": "EP",
  "SequenceName": "*epfid2d1_70",
  "SequenceVariant": "SK",
  "SeriesDescription": "BOLD_ep2d_3x3x3_response1",
  "SeriesNumber": 6,
  "ShimSetting": [5077, 3760, 4425, 79, 10, -50, -61, 86],
  "SliceThickness": 3,
  "SliceTiming": [0.99, 0, 1.0375, 0.0475, 1.085, 0.095, 1.1325, 0.1425, 1.1775, 0.19, 1.225, 0.235, 1.2725, 0.2825, 1.32, 0.33, 1.3675, 0.3775, 1.415, 0.425, 1.4625, 0.4725, 1.5075, 0.52, 1.555, 0.565, 1.6025, 0.6125, 1.65, 0.66, 1.6975, 0.7075, 1.745, 0.755, 1.7925, 0.8025, 1.8375, 0.85, 1.885, 0.895, 1.9325, 0.9425],
  "SoftwareVersions": "syngo MR E11",
  "SpacingBetweenSlices": 3,
  "StationName": "AWP66061",
  "TaskName": "response",
  "TotalReadoutTime": 0.018975,
  "TxRefAmp": 248.251,
  "dcmmeta_affine": [
    [-2.999004602432251, -0.003664172487333417, 0.07719075679779053, 103.51659393310547],
    [-0.014377289451658726, 2.9707629680633545, -0.41756513714790344, -91.33444213867188],
    [0.0759284719824791, 0.4177964925765991, 2.969794750213623, -48.753509521484375],
    [0.0, 0.0, 0.0, 1.0]
],
  "dcmmeta_reorient_transform": [
    [0.0, -1.0, 0.0, 69.0],
    [1.0, 0.0, 0.0, 0.0],
    [0.0, 0.0, -1.0, 41.0],
    [0.0, 0.0, 0.0, 1.0]
],
  "dcmmeta_shape": [70, 70, 42, 341],
  "dcmmeta_slice_dim": 2,
  "dcmmeta_version": 0.6,
  "global": {
    "const": {
      "AcquisitionMatrix": [70, 0, 0, 70],
      "AngioFlag": "N",
      "BitsAllocated": 16,
      "BitsStored": 12,
      "BodyPartExamined": "HEAD",
      "Columns": 490,
      "EchoNumbers": 1,
      "EchoTime": 22.0,
      "EchoTrainLength": 35,
      "FlipAngle": 90.0,
      "HighBit": 11,
      "ImageOrientationPatient": [0.99966817610639, 0.00479242984673, 0.02530949024147, -0.0012213908114, 0.99025432501835, -0.1392655017833],
      "ImagePositionPatient": [-735.45006283099, -723.40748866235, 173.62832735775],
      "ImageType": [
        "ORIGINAL",
        "PRIMARY",
        "M",
        "ND",
        "NORM",
        "MOSAIC"
],
      "ImagedNucleus": "1H",
      "ImagingFrequency": 123.255817,
      "InPlanePhaseEncodingDirection": "COL",
      "MRAcquisitionType": "2D",
      "MagneticFieldStrength": 3.0,
      "Manufacturer": "SIEMENS",
      "ManufacturerModelName": "Prisma",
      "Modality": "MR",
      "NumberOfAverages": 1.0,
      "NumberOfPhaseEncodingSteps": 70,
      "PercentPhaseFieldOfView": 100.0,
      "PercentSampling": 100.0,
      "PerformedProcedureStepStartTime": "122744.430000",
      "PhotometricInterpretation": "MONOCHROME2",
      "PixelBandwidth": 2165.0,
      "PixelRepresentation": 0,
      "PixelSpacing": [3.0, 3.0],
      "ProtocolName": "BOLD_ep2d_3x3x3_response1",
      "RepetitionTime": 2000.0,
      "Rows": 490,
      "SAR": 0.13980196689443,
      "SamplesPerPixel": 1,
      "ScanOptions": "FS",
      "ScanningSequence": "EP",
      "SequenceName": "*epfid2d1_70",
      "SequenceVariant": "SK",
      "SeriesDescription": "BOLD_ep2d_3x3x3_response1",
      "SeriesNumber": 6,
      "SeriesTime": "130743.841000",
      "SliceLocation": 90.11356704657,
      "SliceThickness": 3.0,
      "SmallestImagePixelValue": 0,
      "SoftwareVersions": "syngo MR E11",
      "SpacingBetweenSlices": 3.00000009061,
      "SpecificCharacterSet": "ISO_IR 100",
      "StudyID": "1",
      "StudyTime": "122744.361000",
      "TransmitCoilName": "Body",
      "VariableFlipAngleFlag": "N",
      "WindowCenterWidthExplanation": "Algo1",
      "dBdt": 0.0},
    "slices": {}
  },
  "time": {
    "samples": {
      "AcquisitionNumber": [1, 2, 3, 4, 5, 6, 7, 8, 9, 10, 11, 12, 13, 14, 15, 16, 17, 18, 19, 20, 21, 22, 23, 24, 25, 26, 27, 28, 29, 30, 31, 32, 33, 34, 35, 36, 37, 38, 39, 40, 41, 42, 43, 44, 45, 46, 47, 48, 49, 50, 51, 52, 53, 54, 55, 56, 57, 58, 59, 60, 61, 62, 63, 64, 65, 66, 67, 68, 69, 70, 71, 72, 73, 74, 75, 76, 77, 78, 79, 80, 81, 82, 83, 84, 85, 86, 87, 88, 89, 90, 91, 92, 93, 94, 95, 96, 97, 98, 99, 100, 101, 102, 103, 104, 105, 106, 107, 108, 109, 110, 111, 112, 113, 114, 115, 116, 117, 118, 119, 120, 121, 122, 123, 124, 125, 126, 127, 128, 129, 130, 131, 132, 133, 134, 135, 136, 137, 138, 139, 140, 141, 142, 143, 144, 145, 146, 147, 148, 149, 150, 151, 152, 153, 154, 155, 156, 157, 158, 159, 160, 161, 162, 163, 164, 165, 166, 167, 168, 169, 170, 171, 172, 173, 174, 175, 176, 177, 178, 179, 180, 181, 182, 183, 184, 185, 186, 187, 188, 189, 190, 191, 192, 193, 194, 195, 196, 197, 198, 199, 200, 201, 202, 203, 204, 205, 206, 207, 208, 209, 210, 211, 212, 213, 214, 215, 216, 217, 218, 219, 220, 221, 222, 223, 224, 225, 226, 227, 228, 229, 230, 231, 232, 233, 234, 235, 236, 237, 238, 239, 240, 241, 242, 243, 244, 245, 246, 247, 248, 249, 250, 251, 252, 253, 254, 255, 256, 257, 258, 259, 260, 261, 262, 263, 264, 265, 266, 267, 268, 269, 270, 271, 272, 273, 274, 275, 276, 277, 278, 279, 280, 281, 282, 283, 284, 285, 286, 287, 288, 289, 290, 291, 292, 293, 294, 295, 296, 297, 298, 299, 300, 301, 302, 303, 304, 305, 306, 307, 308, 309, 310, 311, 312, 313, 314, 315, 316, 317, 318, 319, 320, 321, 322, 323, 324, 325, 326, 327, 328, 329, 330, 331, 332, 333, 334, 335, 336, 337, 338, 339, 340, 341],
      "AcquisitionTime": ["130647.200000", "130649.200000", "130651.200000", "130653.200000", "130655.200000", "130657.200000", "130659.200000", "130701.200000", "130703.200000", "130705.200000", "130707.200000", "130709.200000", "130711.200000", "130713.200000", "130715.200000", "130717.200000", "130719.200000", "130721.200000", "130723.200000", "130725.200000", "130727.200000", "130729.200000", "130731.200000", "130733.200000", "130735.200000", "130737.200000", "130739.200000", "130741.200000", "130743.200000", "130745.200000", "130747.200000", "130749.200000", "130751.200000", "130753.200000", "130755.200000", "130757.200000", "130759.200000", "130801.200000", "130803.200000", "130805.200000", "130807.200000", "130809.200000", "130811.200000", "130813.200000", "130815.200000", "130817.200000", "130819.200000", "130821.200000", "130823.200000", "130825.200000", "130827.200000", "130829.200000", "130831.200000", "130833.200000", "130835.200000", "130837.200000", "130839.200000", "130841.200000", "130843.200000", "130845.200000", "130847.200000", "130849.200000", "130851.200000", "130853.200000", "130855.200000", "130857.200000", "130859.200000", "130901.200000", "130903.200000", "130905.200000", "130907.200000", "130909.200000", "130911.200000", "130913.200000", "130915.200000", "130917.200000", "130919.200000", "130921.200000", "130923.200000", "130925.200000", "130927.200000", "130929.200000", "130931.200000", "130933.200000", "130935.200000", "130937.200000", "130939.200000", "130941.200000", "130943.200000", "130945.200000", "130947.200000", "130949.200000", "130951.200000", "130953.200000", "130955.200000", "130957.200000", "130959.200000", "131001.200000", "131003.200000", "131005.200000", "131007.200000", "131009.200000", "131011.200000", "131013.200000", "131015.200000", "131017.200000", "131019.200000", "131021.200000", "131023.200000", "131025.200000", "131027.200000", "131029.200000", "131031.200000", "131033.200000", "131035.200000", "131037.200000", "131039.200000", "131041.200000", "131043.200000", "131045.200000", "131047.200000", "131049.200000", "131051.200000", "131053.200000", "131055.200000", "131057.200000", "131059.200000", "131101.200000", "131103.200000", "131105.200000", "131107.200000", "131109.200000", "131111.200000", "131113.200000", "131115.200000", "131117.200000", "131119.200000", "131121.200000", "131123.200000", "131125.200000", "131127.200000", "131129.200000", "131131.200000", "131133.200000", "131135.200000", "131137.200000", "131139.200000", "131141.200000", "131143.200000", "131145.200000", "131147.200000", "131149.200000", "131151.200000", "131153.200000", "131155.200000", "131157.200000", "131159.200000", "131201.200000", "131203.200000", "131205.200000", "131207.200000", "131209.200000", "131211.200000", "131213.200000", "131215.200000", "131217.200000", "131219.200000", "131221.200000", "131223.200000", "131225.200000", "131227.200000", "131229.200000", "131231.200000", "131233.200000", "131235.200000", "131237.200000", "131239.200000", "131241.200000", "131243.200000", "131245.200000", "131247.200000", "131249.200000", "131251.200000", "131253.200000", "131255.200000", "131257.200000", "131259.200000", "131301.200000", "131303.200000", "131305.200000", "131307.200000", "131309.200000", "131311.200000", "131313.200000", "131315.200000", "131317.200000", "131319.200000", "131321.200000", "131323.200000", "131325.200000", "131327.200000", "131329.200000", "131331.200000", "131333.200000", "131335.200000", "131337.200000", "131339.200000", "131341.200000", "131343.200000", "131345.200000", "131347.200000", "131349.200000", "131351.200000", "131353.200000", "131355.200000", "131357.200000", "131359.200000", "131401.200000", "131403.200000", "131405.200000", "131407.200000", "131409.200000", "131411.200000", "131413.200000", "131415.200000", "131417.200000", "131419.200000", "131421.200000", "131423.200000", "131425.200000", "131427.200000", "131429.200000", "131431.200000", "131433.200000", "131435.200000", "131437.200000", "131439.200000", "131441.200000", "131443.200000", "131445.200000", "131447.200000", "131449.200000", "131451.200000", "131453.200000", "131455.200000", "131457.200000", "131459.200000", "131501.200000", "131503.200000", "131505.200000", "131507.200000", "131509.200000", "131511.200000", "131513.200000", "131515.200000", "131517.200000", "131519.200000", "131521.200000", "131523.200000", "131525.200000", "131527.200000", "131529.200000", "131531.200000", "131533.200000", "131535.200000", "131537.200000", "131539.200000", "131541.200000", "131543.200000", "131545.200000", "131547.200000", "131549.200000", "131551.200000", "131553.200000", "131555.200000", "131557.200000", "131559.200000", "131601.200000", "131603.200000", "131605.200000", "131607.200000", "131609.200000", "131611.200000", "131613.200000", "131615.200000", "131617.200000", "131619.200000", "131621.200000", "131623.200000", "131625.200000", "131627.200000", "131629.200000", "131631.200000", "131633.200000", "131635.200000", "131637.200000", "131639.200000", "131641.200000", "131643.200000", "131645.200000", "131647.200000", "131649.200000", "131651.200000", "131653.200000", "131655.200000", "131657.200000", "131659.200000", "131701.200000", "131703.200000", "131705.200000", "131707.200000", "131709.200000", "131711.200000", "131713.200000", "131715.200000", "131717.200000", "131719.200000", "131721.200000", "131723.200000", "131725.200000", "131727.200000", "131729.200000", "131731.200000", "131733.200000", "131735.200000", "131737.200000", "131739.200000", "131741.200000", "131743.200000", "131745.200000", "131747.200000", "131749.200000", "131751.200000", "131753.200000", "131755.200000", "131757.200000", "131759.200000", "131801.200000", "131803.200000", "131805.200000", "131807.200000"],
      "ContentTime": ["130743.844000", "130743.848000", "130743.850000", "130743.853000", "130743.856000", "130743.858000", "130743.861000", "130743.863000", "130743.866000", "130743.869000", "130743.871000", "130743.874000", "130743.877000", "130743.897000", "130743.899000", "130743.902000", "130743.904000", "130743.907000", "130743.910000", "130743.912000", "130743.915000", "130743.918000", "130743.920000", "130743.923000", "130743.926000", "130743.928000", "130743.931000", "130743.934000", "130823.840000", "130823.843000", "130823.846000", "130823.849000", "130823.851000", "130823.854000", "130823.857000", "130823.859000", "130823.862000", "130823.865000", "130823.877000", "130823.879000", "130823.882000", "130823.885000", "130823.887000", "130823.890000", "130823.892000", "130823.895000", "130823.898000", "130823.900000", "130903.841000", "130903.843000", "130903.846000", "130903.849000", "130903.851000", "130903.854000", "130903.857000", "130903.859000", "130903.862000", "130903.864000", "130903.867000", "130903.870000", "130903.872000", "130903.875000", "130903.878000", "130903.880000", "130903.883000", "130903.885000", "130903.888000", "130903.891000", "130943.840000", "130943.842000", "130943.845000", "130943.848000", "130943.851000", "130943.853000", "130943.856000", "130943.858000", "130943.861000", "130943.864000", "130943.866000", "130943.869000", "130943.872000", "130943.875000", "130943.877000", "130943.880000", "130943.890000", "130943.893000", "130943.896000", "130943.898000", "131023.841000", "131023.844000", "131023.846000", "131023.849000", "131023.852000", "131023.854000", "131023.857000", "131023.860000", "131023.862000", "131023.865000", "131023.868000", "131023.870000", "131023.873000", "131023.875000", "131023.878000", "131023.881000", "131023.883000", "131023.886000", "131023.889000", "131023.891000", "131103.841000", "131103.843000", "131103.846000", "131103.849000", "131103.851000", "131103.854000", "131103.857000", "131103.859000", "131103.862000", "131103.865000", "131103.867000", "131103.879000", "131103.882000", "131103.884000", "131103.887000", "131103.890000", "131103.892000", "131103.895000", "131103.898000", "131103.900000", "131143.841000", "131143.843000", "131143.846000", "131143.849000", "131143.852000", "131143.854000", "131143.857000", "131143.859000", "131143.862000", "131143.865000", "131143.868000", "131143.870000", "131143.873000", "131143.875000", "131143.878000", "131143.881000", "131143.883000", "131143.886000", "131143.888000", "131143.891000", "131223.839000", "131223.842000", "131223.845000", "131223.848000", "131223.851000", "131223.853000", "131223.856000", "131223.858000", "131223.861000", "131223.864000", "131223.867000", "131223.869000", "131223.872000", "131223.875000", "131223.877000", "131223.880000", "131223.883000", "131223.885000", "131223.888000", "131223.891000", "131303.840000", "131303.843000", "131303.846000", "131303.849000", "131303.852000", "131303.854000", "131303.857000", "131303.860000", "131303.862000", "131303.865000", "131303.868000", "131303.870000", "131303.873000", "131303.876000", "131303.878000", "131303.881000", "131303.884000", "131303.886000", "131303.889000", "131303.892000", "131343.841000", "131343.843000", "131343.846000", "131343.849000", "131343.852000", "131343.854000", "131343.857000", "131343.859000", "131343.862000", "131343.865000", "131343.868000", "131343.877000", "131343.879000", "131343.882000", "131343.885000", "131343.887000", "131343.890000", "131343.893000", "131343.895000", "131343.898000", "131423.840000", "131423.842000", "131423.845000", "131423.848000", "131423.850000", "131423.853000", "131423.856000", "131423.858000", "131423.861000", "131423.864000", "131423.866000", "131423.869000", "131423.872000", "131423.875000", "131423.886000", "131423.888000", "131423.891000", "131423.894000", "131423.896000", "131423.899000", "131503.841000", "131503.843000", "131503.846000", "131503.849000", "131503.852000", "131503.854000", "131503.857000", "131503.860000", "131503.862000", "131503.865000", "131503.868000", "131503.870000", "131503.873000", "131503.876000", "131503.878000", "131503.881000", "131503.884000", "131503.886000", "131503.889000", "131503.892000", "131543.841000", "131543.844000", "131543.846000", "131543.849000", "131543.852000", "131543.854000", "131543.857000", "131543.860000", "131543.863000", "131543.865000", "131543.868000", "131543.870000", "131543.873000", "131543.876000", "131543.879000", "131543.881000", "131543.892000", "131543.895000", "131543.897000", "131543.900000", "131623.841000", "131623.844000", "131623.846000", "131623.849000", "131623.852000", "131623.854000", "131623.857000", "131623.860000", "131623.862000", "131623.865000", "131623.867000", "131623.870000", "131623.873000", "131623.875000", "131623.878000", "131623.881000", "131623.883000", "131623.886000", "131623.889000", "131623.891000", "131703.840000", "131703.843000", "131703.845000", "131703.848000", "131703.851000", "131703.853000", "131703.856000", "131703.859000", "131703.862000", "131703.864000", "131703.867000", "131703.870000", "131703.872000", "131703.875000", "131703.878000", "131703.880000", "131703.883000", "131703.886000", "131703.888000", "131703.891000", "131743.841000", "131743.844000", "131743.846000", "131743.849000", "131743.852000", "131743.854000", "131743.857000", "131743.860000", "131743.862000", "131743.865000", "131743.868000", "131743.870000", "131743.873000", "131743.876000", "131743.878000", "131743.881000", "131743.884000", "131743.886000", "131743.889000", "131743.892000", "131809.195000", "131809.198000", "131809.201000", "131809.204000", "131809.206000", "131809.209000", "131809.212000", "131809.214000", "131809.217000", "131809.220000", "131809.223000", "131809.229000", "131809.235000"],
      "DataSetTrailingPadding": [
        "\u0000\u0000\u0000\u0000\u0000\u0000\u0000\u0000\u0000\u0000\u0000\u0000\u0000\u0000\u0000\u0000\u0000\u0000\u0000\u0000\u0000\u0000\u0000\u0000\u0000\u0000\u0000\u0000\u0000\u0000\u0000\u0000\u0000\u0000\u0000\u0000\u0000\u0000\u0000\u0000\u0000\u0000\u0000\u0000\u0000\u0000\u0000\u0000\u0000\u0000",
        "\u0000\u0000\u0000\u0000\u0000\u0000\u0000\u0000\u0000\u0000\u0000\u0000\u0000\u0000\u0000\u0000\u0000\u0000\u0000\u0000\u0000\u0000\u0000\u0000\u0000\u0000\u0000\u0000\u0000\u0000\u0000\u0000\u0000\u0000\u0000\u0000\u0000\u0000\u0000\u0000\u0000\u0000\u0000\u0000\u0000\u0000\u0000\u0000",
        "\u0000\u0000\u0000\u0000\u0000\u0000\u0000\u0000\u0000\u0000\u0000\u0000\u0000\u0000\u0000\u0000\u0000\u0000\u0000\u0000\u0000\u0000\u0000\u0000\u0000\u0000\u0000\u0000\u0000\u0000\u0000\u0000\u0000\u0000\u0000\u0000\u0000\u0000\u0000\u0000\u0000\u0000\u0000\u0000\u0000\u0000\u0000\u0000",
        "\u0000\u0000\u0000\u0000\u0000\u0000\u0000\u0000\u0000\u0000\u0000\u0000\u0000\u0000\u0000\u0000\u0000\u0000\u0000\u0000\u0000\u0000\u0000\u0000\u0000\u0000\u0000\u0000\u0000\u0000\u0000\u0000\u0000\u0000\u0000\u0000\u0000\u0000\u0000\u0000\u0000\u0000\u0000\u0000\u0000\u0000\u0000\u0000",
        "\u0000\u0000\u0000\u0000\u0000\u0000\u0000\u0000\u0000\u0000\u0000\u0000\u0000\u0000\u0000\u0000\u0000\u0000\u0000\u0000\u0000\u0000\u0000\u0000\u0000\u0000\u0000\u0000\u0000\u0000\u0000\u0000\u0000\u0000\u0000\u0000\u0000\u0000\u0000\u0000\u0000\u0000\u0000\u0000\u0000\u0000",
        "\u0000\u0000\u0000\u0000\u0000\u0000\u0000\u0000\u0000\u0000\u0000\u0000\u0000\u0000\u0000\u0000\u0000\u0000\u0000\u0000\u0000\u0000\u0000\u0000\u0000\u0000\u0000\u0000\u0000\u0000\u0000\u0000\u0000\u0000\u0000\u0000\u0000\u0000\u0000\u0000\u0000\u0000\u0000\u0000\u0000\u0000",
        "\u0000\u0000\u0000\u0000\u0000\u0000\u0000\u0000\u0000\u0000\u0000\u0000\u0000\u0000\u0000\u0000\u0000\u0000\u0000\u0000\u0000\u0000\u0000\u0000\u0000\u0000\u0000\u0000\u0000\u0000\u0000\u0000\u0000\u0000\u0000\u0000\u0000\u0000\u0000\u0000\u0000\u0000\u0000\u0000\u0000\u0000",
        "\u0000\u0000\u0000\u0000\u0000\u0000\u0000\u0000\u0000\u0000\u0000\u0000\u0000\u0000\u0000\u0000\u0000\u0000\u0000\u0000\u0000\u0000\u0000\u0000\u0000\u0000\u0000\u0000\u0000\u0000\u0000\u0000\u0000\u0000\u0000\u0000\u0000\u0000\u0000\u0000\u0000\u0000\u0000\u0000\u0000\u0000",
        "\u0000\u0000\u0000\u0000\u0000\u0000\u0000\u0000\u0000\u0000\u0000\u0000\u0000\u0000\u0000\u0000\u0000\u0000\u0000\u0000\u0000\u0000\u0000\u0000\u0000\u0000\u0000\u0000\u0000\u0000\u0000\u0000\u0000\u0000\u0000\u0000\u0000\u0000\u0000\u0000\u0000\u0000\u0000\u0000\u0000\u0000",
        "\u0000\u0000\u0000\u0000\u0000\u0000\u0000\u0000\u0000\u0000\u0000\u0000\u0000\u0000\u0000\u0000\u0000\u0000\u0000\u0000\u0000\u0000\u0000\u0000\u0000\u0000\u0000\u0000\u0000\u0000\u0000\u0000\u0000\u0000\u0000\u0000\u0000\u0000\u0000\u0000\u0000\u0000\u0000\u0000\u0000\u0000",
        "\u0000\u0000\u0000\u0000\u0000\u0000\u0000\u0000\u0000\u0000\u0000\u0000\u0000\u0000\u0000\u0000\u0000\u0000\u0000\u0000\u0000\u0000\u0000\u0000\u0000\u0000\u0000\u0000\u0000\u0000\u0000\u0000\u0000\u0000\u0000\u0000\u0000\u0000\u0000\u0000\u0000\u0000\u0000\u0000\u0000\u0000",
        "\u0000\u0000\u0000\u0000\u0000\u0000\u0000\u0000\u0000\u0000\u0000\u0000\u0000\u0000\u0000\u0000\u0000\u0000\u0000\u0000\u0000\u0000\u0000\u0000\u0000\u0000\u0000\u0000\u0000\u0000\u0000\u0000\u0000\u0000\u0000\u0000\u0000\u0000\u0000\u0000\u0000\u0000\u0000\u0000\u0000\u0000",
        "\u0000\u0000\u0000\u0000\u0000\u0000\u0000\u0000\u0000\u0000\u0000\u0000\u0000\u0000\u0000\u0000\u0000\u0000\u0000\u0000\u0000\u0000\u0000\u0000\u0000\u0000\u0000\u0000\u0000\u0000\u0000\u0000\u0000\u0000\u0000\u0000\u0000\u0000\u0000\u0000\u0000\u0000\u0000\u0000\u0000\u0000",
        "\u0000\u0000\u0000\u0000\u0000\u0000\u0000\u0000\u0000\u0000\u0000\u0000\u0000\u0000\u0000\u0000\u0000\u0000\u0000\u0000\u0000\u0000\u0000\u0000\u0000\u0000\u0000\u0000\u0000\u0000\u0000\u0000\u0000\u0000\u0000\u0000\u0000\u0000\u0000\u0000\u0000\u0000\u0000\u0000\u0000\u0000",
        "\u0000\u0000\u0000\u0000\u0000\u0000\u0000\u0000\u0000\u0000\u0000\u0000\u0000\u0000\u0000\u0000\u0000\u0000\u0000\u0000\u0000\u0000\u0000\u0000\u0000\u0000\u0000\u0000\u0000\u0000\u0000\u0000\u0000\u0000\u0000\u0000\u0000\u0000\u0000\u0000\u0000\u0000\u0000\u0000\u0000\u0000",
        "\u0000\u0000\u0000\u0000\u0000\u0000\u0000\u0000\u0000\u0000\u0000\u0000\u0000\u0000\u0000\u0000\u0000\u0000\u0000\u0000\u0000\u0000\u0000\u0000\u0000\u0000\u0000\u0000\u0000\u0000\u0000\u0000\u0000\u0000\u0000\u0000\u0000\u0000\u0000\u0000\u0000\u0000\u0000\u0000\u0000\u0000",
        "\u0000\u0000\u0000\u0000\u0000\u0000\u0000\u0000\u0000\u0000\u0000\u0000\u0000\u0000\u0000\u0000\u0000\u0000\u0000\u0000\u0000\u0000\u0000\u0000\u0000\u0000\u0000\u0000\u0000\u0000\u0000\u0000\u0000\u0000\u0000\u0000\u0000\u0000\u0000\u0000\u0000\u0000\u0000\u0000\u0000\u0000",
        "\u0000\u0000\u0000\u0000\u0000\u0000\u0000\u0000\u0000\u0000\u0000\u0000\u0000\u0000\u0000\u0000\u0000\u0000\u0000\u0000\u0000\u0000\u0000\u0000\u0000\u0000\u0000\u0000\u0000\u0000\u0000\u0000\u0000\u0000\u0000\u0000\u0000\u0000\u0000\u0000\u0000\u0000\u0000\u0000\u0000\u0000",
        "\u0000\u0000\u0000\u0000\u0000\u0000\u0000\u0000\u0000\u0000\u0000\u0000\u0000\u0000\u0000\u0000\u0000\u0000\u0000\u0000\u0000\u0000\u0000\u0000\u0000\u0000\u0000\u0000\u0000\u0000\u0000\u0000\u0000\u0000\u0000\u0000\u0000\u0000\u0000\u0000\u0000\u0000\u0000\u0000\u0000\u0000",
        "\u0000\u0000\u0000\u0000\u0000\u0000\u0000\u0000\u0000\u0000\u0000\u0000\u0000\u0000\u0000\u0000\u0000\u0000\u0000\u0000\u0000\u0000\u0000\u0000\u0000\u0000\u0000\u0000\u0000\u0000\u0000\u0000\u0000\u0000\u0000\u0000\u0000\u0000\u0000\u0000\u0000\u0000\u0000\u0000\u0000\u0000",
        "\u0000\u0000\u0000\u0000\u0000\u0000\u0000\u0000\u0000\u0000\u0000\u0000\u0000\u0000\u0000\u0000\u0000\u0000\u0000\u0000\u0000\u0000\u0000\u0000\u0000\u0000\u0000\u0000\u0000\u0000\u0000\u0000\u0000\u0000\u0000\u0000\u0000\u0000\u0000\u0000\u0000\u0000\u0000\u0000\u0000\u0000",
        "\u0000\u0000\u0000\u0000\u0000\u0000\u0000\u0000\u0000\u0000\u0000\u0000\u0000\u0000\u0000\u0000\u0000\u0000\u0000\u0000\u0000\u0000\u0000\u0000\u0000\u0000\u0000\u0000\u0000\u0000\u0000\u0000\u0000\u0000\u0000\u0000\u0000\u0000\u0000\u0000\u0000\u0000\u0000\u0000\u0000\u0000",
        "\u0000\u0000\u0000\u0000\u0000\u0000\u0000\u0000\u0000\u0000\u0000\u0000\u0000\u0000\u0000\u0000\u0000\u0000\u0000\u0000\u0000\u0000\u0000\u0000\u0000\u0000\u0000\u0000\u0000\u0000\u0000\u0000\u0000\u0000\u0000\u0000\u0000\u0000\u0000\u0000\u0000\u0000\u0000\u0000\u0000\u0000",
        "\u0000\u0000\u0000\u0000\u0000\u0000\u0000\u0000\u0000\u0000\u0000\u0000\u0000\u0000\u0000\u0000\u0000\u0000\u0000\u0000\u0000\u0000\u0000\u0000\u0000\u0000\u0000\u0000\u0000\u0000\u0000\u0000\u0000\u0000\u0000\u0000\u0000\u0000\u0000\u0000\u0000\u0000\u0000\u0000\u0000\u0000",
        "\u0000\u0000\u0000\u0000\u0000\u0000\u0000\u0000\u0000\u0000\u0000\u0000\u0000\u0000\u0000\u0000\u0000\u0000\u0000\u0000\u0000\u0000\u0000\u0000\u0000\u0000\u0000\u0000\u0000\u0000\u0000\u0000\u0000\u0000\u0000\u0000\u0000\u0000\u0000\u0000\u0000\u0000\u0000\u0000\u0000\u0000",
        "\u0000\u0000\u0000\u0000\u0000\u0000\u0000\u0000\u0000\u0000\u0000\u0000\u0000\u0000\u0000\u0000\u0000\u0000\u0000\u0000\u0000\u0000\u0000\u0000\u0000\u0000\u0000\u0000\u0000\u0000\u0000\u0000\u0000\u0000\u0000\u0000\u0000\u0000\u0000\u0000\u0000\u0000\u0000\u0000\u0000\u0000",
        "\u0000\u0000\u0000\u0000\u0000\u0000\u0000\u0000\u0000\u0000\u0000\u0000\u0000\u0000\u0000\u0000\u0000\u0000\u0000\u0000\u0000\u0000\u0000\u0000\u0000\u0000\u0000\u0000\u0000\u0000\u0000\u0000\u0000\u0000\u0000\u0000\u0000\u0000\u0000\u0000\u0000\u0000\u0000\u0000\u0000\u0000",
        "\u0000\u0000\u0000\u0000\u0000\u0000\u0000\u0000\u0000\u0000\u0000\u0000\u0000\u0000\u0000\u0000\u0000\u0000\u0000\u0000\u0000\u0000\u0000\u0000\u0000\u0000\u0000\u0000\u0000\u0000\u0000\u0000\u0000\u0000\u0000\u0000\u0000\u0000\u0000\u0000\u0000\u0000\u0000\u0000\u0000\u0000",
        "\u0000\u0000\u0000\u0000\u0000\u0000\u0000\u0000\u0000\u0000\u0000\u0000\u0000\u0000\u0000\u0000\u0000\u0000\u0000\u0000\u0000\u0000\u0000\u0000\u0000\u0000\u0000\u0000\u0000\u0000\u0000\u0000\u0000\u0000\u0000\u0000\u0000\u0000\u0000\u0000\u0000\u0000\u0000\u0000\u0000\u0000",
        "\u0000\u0000\u0000\u0000\u0000\u0000\u0000\u0000\u0000\u0000\u0000\u0000\u0000\u0000\u0000\u0000\u0000\u0000\u0000\u0000\u0000\u0000\u0000\u0000\u0000\u0000\u0000\u0000\u0000\u0000\u0000\u0000\u0000\u0000\u0000\u0000\u0000\u0000\u0000\u0000\u0000\u0000\u0000\u0000\u0000\u0000",
        "\u0000\u0000\u0000\u0000\u0000\u0000\u0000\u0000\u0000\u0000\u0000\u0000\u0000\u0000\u0000\u0000\u0000\u0000\u0000\u0000\u0000\u0000\u0000\u0000\u0000\u0000\u0000\u0000\u0000\u0000\u0000\u0000\u0000\u0000\u0000\u0000\u0000\u0000\u0000\u0000\u0000\u0000\u0000\u0000\u0000\u0000",
        "\u0000\u0000\u0000\u0000\u0000\u0000\u0000\u0000\u0000\u0000\u0000\u0000\u0000\u0000\u0000\u0000\u0000\u0000\u0000\u0000\u0000\u0000\u0000\u0000\u0000\u0000\u0000\u0000\u0000\u0000\u0000\u0000\u0000\u0000\u0000\u0000\u0000\u0000\u0000\u0000\u0000\u0000\u0000\u0000\u0000\u0000",
        "\u0000\u0000\u0000\u0000\u0000\u0000\u0000\u0000\u0000\u0000\u0000\u0000\u0000\u0000\u0000\u0000\u0000\u0000\u0000\u0000\u0000\u0000\u0000\u0000\u0000\u0000\u0000\u0000\u0000\u0000\u0000\u0000\u0000\u0000\u0000\u0000\u0000\u0000\u0000\u0000\u0000\u0000\u0000\u0000\u0000\u0000",
        "\u0000\u0000\u0000\u0000\u0000\u0000\u0000\u0000\u0000\u0000\u0000\u0000\u0000\u0000\u0000\u0000\u0000\u0000\u0000\u0000\u0000\u0000\u0000\u0000\u0000\u0000\u0000\u0000\u0000\u0000\u0000\u0000\u0000\u0000\u0000\u0000\u0000\u0000\u0000\u0000\u0000\u0000\u0000\u0000\u0000\u0000",
        "\u0000\u0000\u0000\u0000\u0000\u0000\u0000\u0000\u0000\u0000\u0000\u0000\u0000\u0000\u0000\u0000\u0000\u0000\u0000\u0000\u0000\u0000\u0000\u0000\u0000\u0000\u0000\u0000\u0000\u0000\u0000\u0000\u0000\u0000\u0000\u0000\u0000\u0000\u0000\u0000\u0000\u0000\u0000\u0000\u0000\u0000",
        "\u0000\u0000\u0000\u0000\u0000\u0000\u0000\u0000\u0000\u0000\u0000\u0000\u0000\u0000\u0000\u0000\u0000\u0000\u0000\u0000\u0000\u0000\u0000\u0000\u0000\u0000\u0000\u0000\u0000\u0000\u0000\u0000\u0000\u0000\u0000\u0000\u0000\u0000\u0000\u0000\u0000\u0000\u0000\u0000\u0000\u0000",
        "\u0000\u0000\u0000\u0000\u0000\u0000\u0000\u0000\u0000\u0000\u0000\u0000\u0000\u0000\u0000\u0000\u0000\u0000\u0000\u0000\u0000\u0000\u0000\u0000\u0000\u0000\u0000\u0000\u0000\u0000\u0000\u0000\u0000\u0000\u0000\u0000\u0000\u0000\u0000\u0000\u0000\u0000\u0000\u0000\u0000\u0000",
        "\u0000\u0000\u0000\u0000\u0000\u0000\u0000\u0000\u0000\u0000\u0000\u0000\u0000\u0000\u0000\u0000\u0000\u0000\u0000\u0000\u0000\u0000\u0000\u0000\u0000\u0000\u0000\u0000\u0000\u0000\u0000\u0000\u0000\u0000\u0000\u0000\u0000\u0000\u0000\u0000\u0000\u0000\u0000\u0000\u0000\u0000",
        "\u0000\u0000\u0000\u0000\u0000\u0000\u0000\u0000\u0000\u0000\u0000\u0000\u0000\u0000\u0000\u0000\u0000\u0000\u0000\u0000\u0000\u0000\u0000\u0000\u0000\u0000\u0000\u0000\u0000\u0000\u0000\u0000\u0000\u0000\u0000\u0000\u0000\u0000\u0000\u0000\u0000\u0000\u0000\u0000\u0000\u0000",
