{
  "AcquisitionMatrixPE": 70,
  "AcquisitionNumber": 1,
  "AcquisitionTime": "16:31:51.227500",
  "BandwidthPerPixelPhaseEncode": 51.948,
  "BaseResolution": 70,
  "BodyPartExamined": "HEAD",
  "CoilCombinationMethod": "Sum of Squares",
  "ConsistencyInfo": "N4_VE11C_LATEST_20160120",
  "ConversionSoftware": "dcm2niix",
  "ConversionSoftwareVersion": "v1.0.20220720",
  "DerivedVendorReportedEchoSpacing": 0.000550001,
  "DeviceSerialNumber": "66061",
  "DwellTime": 3.3e-06,
  "EchoTime": 0.022,
  "EchoTrainLength": 35,
  "EffectiveEchoSpacing": 0.000275,
  "FlipAngle": 90,
  "HeudiconvVersion": "1.1.1",
  "ImageOrientationPatientDICOM": [0.99988, 0.00427559, 0.0148856, -0.00122155, 0.979916, -0.199408],
  "ImageOrientationText": "Tra>Cor(-11.5)>Sag(0.9)",
  "ImageType": [
    "ORIGINAL",
    "PRIMARY",
    "M",
    "ND",
    "NORM",
    "MOSAIC"
],
  "ImagingFrequency": 123.255,
  "InPlanePhaseEncodingDirectionDICOM": "COL",
  "InstitutionAddress": "Street StreetNo,City/1c4204/,District,KR,ZIP",
  "InstitutionName": "SKKU",
  "InstitutionalDepartmentName": "Department",
  "MRAcquisitionType": "2D",
  "MagneticFieldStrength": 3,
  "Manufacturer": "Siemens",
  "ManufacturersModelName": "Prisma",
  "MatrixCoilMode": "GRAPPA",
  "Modality": "MR",
  "NonlinearGradientCorrection": false,
  "ParallelReductionFactorInPlane": 2,
  "PartialFourier": 1,
  "PatientPosition": "HFS",
  "PercentPhaseFOV": 100,
  "PercentSampling": 100,
  "PhaseEncodingDirection": "j-",
  "PhaseEncodingSteps": 70,
  "PhaseResolution": 1,
  "PixelBandwidth": 2165,
  "ProcedureStepDescription": "Head^PI:Others",
  "ProtocolName": "BOLD_ep2d_3x3x3_dimension2",
  "PulseSequenceDetails": "%SiemensSeq%\\ep2d_pace",
  "ReceiveCoilActiveElements": "HC1-7",
  "ReceiveCoilName": "HeadNeck_64",
  "ReconMatrixPE": 70,
  "RefLinesPE": 24,
  "RepetitionTime": 2,
  "SAR": 0.125176,
  "ScanOptions": "FS",
  "ScanningSequence": "EP",
  "SequenceName": "*epfid2d1_70",
  "SequenceVariant": "SK",
  "SeriesDescription": "BOLD_ep2d_3x3x3_dimension2",
  "SeriesNumber": 7,
  "ShimSetting": [5058, 3752, 4462, 323, -58, -22, -99, 47],
  "SliceThickness": 3,
  "SliceTiming": [0.99, 0, 1.0375, 0.0475, 1.085, 0.095, 1.1325, 0.1425, 1.1775, 0.19, 1.225, 0.235, 1.2725, 0.2825, 1.32, 0.33, 1.3675, 0.3775, 1.415, 0.425, 1.4625, 0.4725, 1.5075, 0.5175, 1.555, 0.565, 1.6025, 0.6125, 1.65, 0.66, 1.6975, 0.7075, 1.745, 0.755, 1.7925, 0.8025, 1.8375, 0.8475, 1.885, 0.895, 1.9325, 0.9425],
  "SoftwareVersions": "syngo MR E11",
  "SpacingBetweenSlices": 3,
  "StationName": "AWP66061",
  "TaskName": "dimension",
  "TotalReadoutTime": 0.018975,
  "TxRefAmp": 240.258,
  "dcmmeta_affine": [
    [-2.9996402263641357, -0.0036646449007093906, 0.04631780833005905, 105.43252563476562],
    [-0.01282677985727787, 2.9397473335266113, -0.59809809923172, -93.2597427368164],
    [0.044656943529844284, 0.598224401473999, 2.939410448074341, -63.406410217285156],
    [0.0, 0.0, 0.0, 1.0]
],
  "dcmmeta_reorient_transform": [
    [0.0, -1.0, 0.0, 69.0],
    [1.0, 0.0, 0.0, 0.0],
    [0.0, 0.0, -1.0, 41.0],
    [0.0, 0.0, 0.0, 1.0]
],
  "dcmmeta_shape": [70, 70, 42, 437],
  "dcmmeta_slice_dim": 2,
  "dcmmeta_version": 0.6,
  "global": {
    "const": {
      "AcquisitionMatrix": [70, 0, 0, 70],
      "AngioFlag": "N",
      "BitsAllocated": 16,
      "BitsStored": 12,
      "BodyPartExamined": "HEAD",
      "Columns": 490,
      "EchoNumbers": 1,
      "EchoTime": 22.0,
      "EchoTrainLength": 35,
      "FlipAngle": 90.0,
      "HighBit": 11,
      "ImageOrientationPatient": [0.99988006119745, 0.00427559320102, 0.01488564820785, -0.0012215483304, 0.97991576336162, -0.199408135579],
      "ImagePositionPatient": [-736.2335609047, -705.10135019854, 214.63606740235],
      "ImageType": [
        "ORIGINAL",
        "PRIMARY",
        "M",
        "ND",
        "NORM",
        "MOSAIC"
],
      "ImagedNucleus": "1H",
      "ImagingFrequency": 123.254569,
      "InPlanePhaseEncodingDirection": "COL",
      "MRAcquisitionType": "2D",
      "MagneticFieldStrength": 3.0,
      "Manufacturer": "SIEMENS",
      "ManufacturerModelName": "Prisma",
      "Modality": "MR",
      "NumberOfAverages": 1.0,
      "NumberOfPhaseEncodingSteps": 70,
      "PercentPhaseFieldOfView": 100.0,
      "PercentSampling": 100.0,
      "PerformedProcedureStepStartTime": "153804.274000",
      "PhotometricInterpretation": "MONOCHROME2",
      "PixelBandwidth": 2165.0,
      "PixelRepresentation": 0,
      "PixelSpacing": [3.0, 3.0],
      "ProtocolName": "BOLD_ep2d_3x3x3_dimension2",
      "RepetitionTime": 2000.0,
      "Rows": 490,
      "SAR": 0.12517610949428,
      "SamplesPerPixel": 1,
      "ScanOptions": "FS",
      "ScanningSequence": "EP",
      "SequenceName": "*epfid2d1_70",
      "SequenceVariant": "SK",
      "SeriesDescription": "BOLD_ep2d_3x3x3_dimension2",
      "SeriesNumber": 7,
      "SeriesTime": "163203.842000",
      "SliceLocation": 81.094808317713,
      "SliceThickness": 3.0,
      "SmallestImagePixelValue": 0,
      "SoftwareVersions": "syngo MR E11",
      "SpacingBetweenSlices": 3.0000000444262,
      "SpecificCharacterSet": "ISO_IR 100",
      "StudyID": "2",
      "StudyTime": "153804.219000",
      "TransmitCoilName": "Body",
      "VariableFlipAngleFlag": "N",
      "WindowCenterWidthExplanation": "Algo1",
      "dBdt": 0.0},
    "slices": {}
  },
  "time": {
    "samples": {
      "AcquisitionNumber": [1, 2, 3, 4, 5, 6, 7, 8, 9, 10, 11, 12, 13, 14, 15, 16, 17, 18, 19, 20, 21, 22, 23, 24, 25, 26, 27, 28, 29, 30, 31, 32, 33, 34, 35, 36, 37, 38, 39, 40, 41, 42, 43, 44, 45, 46, 47, 48, 49, 50, 51, 52, 53, 54, 55, 56, 57, 58, 59, 60, 61, 62, 63, 64, 65, 66, 67, 68, 69, 70, 71, 72, 73, 74, 75, 76, 77, 78, 79, 80, 81, 82, 83, 84, 85, 86, 87, 88, 89, 90, 91, 92, 93, 94, 95, 96, 97, 98, 99, 100, 101, 102, 103, 104, 105, 106, 107, 108, 109, 110, 111, 112, 113, 114, 115, 116, 117, 118, 119, 120, 121, 122, 123, 124, 125, 126, 127, 128, 129, 130, 131, 132, 133, 134, 135, 136, 137, 138, 139, 140, 141, 142, 143, 144, 145, 146, 147, 148, 149, 150, 151, 152, 153, 154, 155, 156, 157, 158, 159, 160, 161, 162, 163, 164, 165, 166, 167, 168, 169, 170, 171, 172, 173, 174, 175, 176, 177, 178, 179, 180, 181, 182, 183, 184, 185, 186, 187, 188, 189, 190, 191, 192, 193, 194, 195, 196, 197, 198, 199, 200, 201, 202, 203, 204, 205, 206, 207, 208, 209, 210, 211, 212, 213, 214, 215, 216, 217, 218, 219, 220, 221, 222, 223, 224, 225, 226, 227, 228, 229, 230, 231, 232, 233, 234, 235, 236, 237, 238, 239, 240, 241, 242, 243, 244, 245, 246, 247, 248, 249, 250, 251, 252, 253, 254, 255, 256, 257, 258, 259, 260, 261, 262, 263, 264, 265, 266, 267, 268, 269, 270, 271, 272, 273, 274, 275, 276, 277, 278, 279, 280, 281, 282, 283, 284, 285, 286, 287, 288, 289, 290, 291, 292, 293, 294, 295, 296, 297, 298, 299, 300, 301, 302, 303, 304, 305, 306, 307, 308, 309, 310, 311, 312, 313, 314, 315, 316, 317, 318, 319, 320, 321, 322, 323, 324, 325, 326, 327, 328, 329, 330, 331, 332, 333, 334, 335, 336, 337, 338, 339, 340, 341, 342, 343, 344, 345, 346, 347, 348, 349, 350, 351, 352, 353, 354, 355, 356, 357, 358, 359, 360, 361, 362, 363, 364, 365, 366, 367, 368, 369, 370, 371, 372, 373, 374, 375, 376, 377, 378, 379, 380, 381, 382, 383, 384, 385, 386, 387, 388, 389, 390, 391, 392, 393, 394, 395, 396, 397, 398, 399, 400, 401, 402, 403, 404, 405, 406, 407, 408, 409, 410, 411, 412, 413, 414, 415, 416, 417, 418, 419, 420, 421, 422, 423, 424, 425, 426, 427, 428, 429, 430, 431, 432, 433, 434, 435, 436, 437],
      "AcquisitionTime": ["163151.227500", "163153.227500", "163155.227500", "163157.227500", "163159.227500", "163201.227500", "163203.227500", "163205.227500", "163207.227500", "163209.227500", "163211.227500", "163213.227500", "163215.227500", "163217.227500", "163219.227500", "163221.227500", "163223.227500", "163225.227500", "163227.227500", "163229.227500", "163231.227500", "163233.227500", "163235.227500", "163237.227500", "163239.227500", "163241.227500", "163243.227500", "163245.227500", "163247.227500", "163249.227500", "163251.227500", "163253.227500", "163255.227500", "163257.227500", "163259.227500", "163301.227500", "163303.227500", "163305.227500", "163307.227500", "163309.227500", "163311.227500", "163313.227500", "163315.227500", "163317.227500", "163319.227500", "163321.227500", "163323.227500", "163325.227500", "163327.227500", "163329.227500", "163331.227500", "163333.227500", "163335.227500", "163337.227500", "163339.227500", "163341.227500", "163343.227500", "163345.227500", "163347.227500", "163349.227500", "163351.227500", "163353.227500", "163355.227500", "163357.227500", "163359.227500", "163401.227500", "163403.227500", "163405.227500", "163407.227500", "163409.227500", "163411.227500", "163413.227500", "163415.227500", "163417.227500", "163419.227500", "163421.227500", "163423.227500", "163425.227500", "163427.227500", "163429.227500", "163431.227500", "163433.227500", "163435.227500", "163437.227500", "163439.227500", "163441.227500", "163443.227500", "163445.227500", "163447.227500", "163449.227500", "163451.227500", "163453.227500", "163455.227500", "163457.227500", "163459.227500", "163501.227500", "163503.227500", "163505.227500", "163507.227500", "163509.227500", "163511.227500", "163513.227500", "163515.227500", "163517.227500", "163519.227500", "163521.227500", "163523.227500", "163525.227500", "163527.227500", "163529.227500", "163531.227500", "163533.227500", "163535.227500", "163537.227500", "163539.227500", "163541.227500", "163543.227500", "163545.227500", "163547.227500", "163549.227500", "163551.227500", "163553.227500", "163555.227500", "163557.227500", "163559.227500", "163601.227500", "163603.227500", "163605.227500", "163607.227500", "163609.227500", "163611.227500", "163613.227500", "163615.227500", "163617.227500", "163619.227500", "163621.227500", "163623.227500", "163625.227500", "163627.227500", "163629.227500", "163631.227500", "163633.227500", "163635.227500", "163637.227500", "163639.227500", "163641.227500", "163643.227500", "163645.227500", "163647.227500", "163649.227500", "163651.227500", "163653.227500", "163655.227500", "163657.227500", "163659.227500", "163701.227500", "163703.227500", "163705.227500", "163707.227500", "163709.227500", "163711.227500", "163713.227500", "163715.227500", "163717.227500", "163719.227500", "163721.227500", "163723.227500", "163725.227500", "163727.227500", "163729.227500", "163731.227500", "163733.227500", "163735.227500", "163737.227500", "163739.227500", "163741.227500", "163743.227500", "163745.227500", "163747.227500", "163749.227500", "163751.227500", "163753.227500", "163755.227500", "163757.227500", "163759.227500", "163801.227500", "163803.227500", "163805.227500", "163807.227500", "163809.227500", "163811.227500", "163813.227500", "163815.227500", "163817.227500", "163819.227500", "163821.227500", "163823.227500", "163825.227500", "163827.227500", "163829.227500", "163831.227500", "163833.227500", "163835.227500", "163837.227500", "163839.227500", "163841.227500", "163843.227500", "163845.227500", "163847.227500", "163849.227500", "163851.227500", "163853.227500", "163855.227500", "163857.227500", "163859.227500", "163901.227500", "163903.227500", "163905.227500", "163907.227500", "163909.227500", "163911.227500", "163913.227500", "163915.227500", "163917.227500", "163919.227500", "163921.227500", "163923.227500", "163925.227500", "163927.227500", "163929.227500", "163931.227500", "163933.227500", "163935.227500", "163937.227500", "163939.227500", "163941.227500", "163943.227500", "163945.227500", "163947.227500", "163949.227500", "163951.227500", "163953.227500", "163955.227500", "163957.227500", "163959.227500", "164001.227500", "164003.227500", "164005.227500", "164007.227500", "164009.227500", "164011.227500", "164013.227500", "164015.227500", "164017.227500", "164019.227500", "164021.227500", "164023.227500", "164025.227500", "164027.227500", "164029.227500", "164031.227500", "164033.227500", "164035.227500", "164037.227500", "164039.227500", "164041.227500", "164043.227500", "164045.227500", "164047.227500", "164049.227500", "164051.227500", "164053.227500", "164055.227500", "164057.227500", "164059.227500", "164101.227500", "164103.227500", "164105.227500", "164107.227500", "164109.227500", "164111.227500", "164113.227500", "164115.227500", "164117.227500", "164119.227500", "164121.227500", "164123.227500", "164125.227500", "164127.227500", "164129.227500", "164131.227500", "164133.227500", "164135.227500", "164137.227500", "164139.227500", "164141.227500", "164143.227500", "164145.227500", "164147.227500", "164149.227500", "164151.227500", "164153.227500", "164155.227500", "164157.227500", "164159.227500", "164201.227500", "164203.227500", "164205.227500", "164207.227500", "164209.227500", "164211.227500", "164213.227500", "164215.227500", "164217.227500", "164219.227500", "164221.227500", "164223.227500", "164225.227500", "164227.227500", "164229.227500", "164231.227500", "164233.227500", "164235.227500", "164237.227500", "164239.227500", "164241.227500", "164243.227500", "164245.227500", "164247.227500", "164249.227500", "164251.227500", "164253.227500", "164255.227500", "164257.227500", "164259.227500", "164301.227500", "164303.227500", "164305.227500", "164307.227500", "164309.227500", "164311.227500", "164313.227500", "164315.227500", "164317.227500", "164319.227500", "164321.227500", "164323.227500", "164325.227500", "164327.227500", "164329.227500", "164331.227500", "164333.227500", "164335.227500", "164337.227500", "164339.227500", "164341.227500", "164343.227500", "164345.227500", "164347.227500", "164349.227500", "164351.227500", "164353.227500", "164355.227500", "164357.227500", "164359.227500", "164401.227500", "164403.227500", "164405.227500", "164407.227500", "164409.227500", "164411.227500", "164413.227500", "164415.227500", "164417.227500", "164419.227500", "164421.227500", "164423.227500", "164425.227500", "164427.227500", "164429.227500", "164431.227500", "164433.227500", "164435.227500", "164437.227500", "164439.227500", "164441.227500", "164443.227500", "164445.227500", "164447.227500", "164449.227500", "164451.227500", "164453.227500", "164455.227500", "164457.227500", "164459.227500", "164501.227500", "164503.227500", "164505.227500", "164507.227500", "164509.227500", "164511.227500", "164513.227500", "164515.227500", "164517.227500", "164519.227500", "164521.227500", "164523.227500", "164525.227500", "164527.227500", "164529.227500", "164531.227500", "164533.227500", "164535.227500", "164537.227500", "164539.227500", "164541.227500", "164543.227500", "164545.227500", "164547.227500", "164549.227500", "164551.227500", "164553.227500", "164555.227500", "164557.227500", "164559.227500", "164601.227500", "164603.227500", "164605.227500", "164607.227500", "164609.227500", "164611.227500", "164613.227500", "164615.227500", "164617.227500", "164619.227500", "164621.227500", "164623.227500"],
      "ContentTime": ["163203.845000", "163203.853000", "163203.855000", "163203.858000", "163203.860000", "163203.863000", "163243.840000", "163243.852000", "163243.854000", "163243.857000", "163243.860000", "163243.862000", "163243.865000", "163243.868000", "163243.874000", "163243.877000", "163243.880000", "163243.891000", "163243.893000", "163243.896000", "163243.899000", "163243.901000", "163243.904000", "163243.906000", "163243.915000", "163243.918000", "163323.840000", "163323.842000", "163323.845000", "163323.848000", "163323.851000", "163323.853000", "163323.856000", "163323.859000", "163323.862000", "163323.869000", "163323.872000", "163323.874000", "163323.881000", "163323.884000", "163323.887000", "163323.889000", "163323.892000", "163323.895000", "163323.897000", "163323.900000", "163403.840000", "163403.843000", "163403.846000", "163403.849000", "163403.867000", "163403.869000", "163403.872000", "163403.875000", "163403.877000", "163403.880000", "163403.883000", "163403.885000", "163403.888000", "163403.891000", "163403.893000", "163403.896000", "163403.908000", "163403.910000", "163403.913000", "163403.915000", "163443.841000", "163443.843000", "163443.846000", "163443.854000", "163443.857000", "163443.859000", "163443.872000", "163443.875000", "163443.877000", "163443.880000", "163443.883000", "163443.885000", "163443.888000", "163443.891000", "163443.893000", "163443.896000", "163443.899000", "163443.909000", "163443.912000", "163443.914000", "163523.840000", "163523.843000", "163523.845000", "163523.848000", "163523.851000", "163523.853000", "163523.856000", "163523.859000", "163523.861000", "163523.864000", "163523.867000", "163523.869000", "163523.872000", "163523.874000", "163523.877000", "163523.880000", "163523.883000", "163523.885000", "163523.888000", "163523.890000", "163603.840000", "163603.844000", "163603.846000", "163603.849000", "163603.852000", "163603.854000", "163603.857000", "163603.860000", "163603.862000", "163603.865000", "163603.868000", "163603.870000", "163603.873000", "163603.876000", "163603.878000", "163603.881000", "163603.884000", "163603.886000", "163603.889000", "163603.892000", "163643.841000", "163643.843000", "163643.846000", "163643.849000", "163643.852000", "163643.854000", "163643.857000", "163643.860000", "163643.863000", "163643.865000", "163643.868000", "163643.871000", "163643.873000", "163643.876000", "163643.879000", "163643.881000", "163643.884000", "163643.887000", "163643.889000", "163643.892000", "163723.841000", "163723.843000", "163723.846000", "163723.849000", "163723.851000", "163723.854000", "163723.857000", "163723.860000", "163723.862000", "163723.865000", "163723.868000", "163723.870000", "163723.873000", "163723.876000", "163723.878000", "163723.881000", "163723.884000", "163723.886000", "163723.889000", "163723.892000", "163803.840000", "163803.843000", "163803.845000", "163803.848000", "163803.851000", "163803.854000", "163803.856000", "163803.859000", "163803.862000", "163803.864000", "163803.867000", "163803.870000", "163803.873000", "163803.875000", "163803.878000", "163803.881000", "163803.883000", "163803.886000", "163803.889000", "163803.891000", "163843.841000", "163843.844000", "163843.846000", "163843.849000", "163843.852000", "163843.855000", "163843.858000", "163843.860000", "163843.863000", "163843.866000", "163843.868000", "163843.871000", "163843.874000", "163843.876000", "163843.879000", "163843.888000", "163843.890000", "163843.893000", "163843.896000", "163843.899000", "163923.841000", "163923.844000", "163923.846000", "163923.849000", "163923.852000", "163923.854000", "163923.857000", "163923.860000", "163923.862000", "163923.865000", "163923.868000", "163923.870000", "163923.873000", "163923.875000", "163923.878000", "163923.881000", "163923.883000", "163923.886000", "163923.889000", "163923.891000", "164003.840000", "164003.843000", "164003.845000", "164003.848000", "164003.851000", "164003.854000", "164003.856000", "164003.859000", "164003.862000", "164003.864000", "164003.867000", "164003.869000", "164003.872000", "164003.875000", "164003.884000", "164003.886000", "164003.889000", "164003.891000", "164003.894000", "164003.897000", "164023.840000", "164023.843000", "164023.846000", "164023.848000", "164023.851000", "164023.854000", "164023.856000", "164023.859000", "164023.862000", "164023.864000", "164103.841000", "164103.844000", "164103.846000", "164103.849000", "164103.852000", "164103.854000", "164103.857000", "164103.860000", "164103.863000", "164103.865000", "164103.868000", "164103.871000", "164103.873000", "164103.876000", "164103.879000", "164103.881000", "164103.884000", "164103.887000", "164103.890000", "164103.892000", "164143.841000", "164143.843000", "164143.846000", "164143.849000", "164143.851000", "164143.854000", "164143.857000", "164143.860000", "164143.870000", "164143.873000", "164143.876000", "164143.879000", "164143.881000", "164143.884000", "164143.887000", "164143.890000", "164143.892000", "164143.895000", "164143.898000", "164143.901000", "164223.840000", "164223.843000", "164223.845000", "164223.848000", "164223.851000", "164223.854000", "164223.856000", "164223.859000", "164223.872000", "164223.875000", "164223.877000", "164223.885000", "164223.888000", "164223.890000", "164223.893000", "164223.896000", "164223.899000", "164223.901000", "164223.904000", "164223.907000", "164303.841000", "164303.844000", "164303.847000", "164303.849000", "164303.852000", "164303.855000", "164303.857000", "164303.878000", "164303.881000", "164303.883000", "164303.886000", "164303.888000", "164303.891000", "164303.894000", "164303.896000", "164303.899000", "164303.902000", "164303.904000", "164303.907000", "164303.910000", "164343.841000", "164343.844000", "164343.847000", "164343.849000", "164343.852000", "164343.855000", "164343.858000", "164343.860000", "164343.863000", "164343.865000", "164343.868000", "164343.871000", "164343.873000", "164343.876000", "164343.879000", "164343.881000", "164343.884000", "164343.887000", "164343.889000", "164343.892000", "164423.841000", "164423.844000", "164423.846000", "164423.849000", "164423.852000", "164423.854000", "164423.857000", "164423.860000", "164423.863000", "164423.866000", "164423.868000", "164423.871000", "164423.874000", "164423.877000", "164423.879000", "164423.882000", "164423.885000", "164423.887000", "164423.890000", "164423.893000", "164503.840000", "164503.843000", "164503.845000", "164503.848000", "164503.851000", "164503.853000", "164503.856000", "164503.859000", "164503.861000", "164503.864000", "164503.867000", "164503.869000", "164503.872000", "164503.875000", "164503.878000", "164503.881000", "164503.883000", "164503.886000", "164503.889000", "164503.891000", "164543.841000", "164543.844000", "164543.846000", "164543.849000", "164543.852000", "164543.854000", "164543.857000", "164543.860000", "164543.862000", "164543.865000", "164543.868000", "164543.870000", "164543.873000", "164543.876000", "164543.878000", "164543.888000", "164543.890000", "164543.893000", "164543.896000", "164543.898000", "164623.841000", "164623.844000", "164623.846000", "164623.849000", "164623.852000", "164623.855000", "164623.858000", "164623.860000", "164623.863000", "164623.866000", "164623.868000", "164623.871000", "164623.874000", "164623.877000", "164623.879000", "164623.882000", "164623.885000", "164623.887000", "164623.890000", "164623.893000", "164624.453000"],
      "DataSetTrailingPadding": [
        "\u0000\u0000\u0000\u0000\u0000\u0000\u0000\u0000\u0000\u0000\u0000\u0000\u0000\u0000\u0000\u0000\u0000\u0000\u0000\u0000\u0000\u0000\u0000\u0000\u0000\u0000\u0000\u0000\u0000\u0000\u0000\u0000\u0000\u0000\u0000\u0000\u0000\u0000\u0000\u0000\u0000\u0000\u0000\u0000\u0000\u0000\u0000\u0000\u0000\u0000\u0000\u0000\u0000\u0000\u0000\u0000\u0000\u0000\u0000\u0000\u0000\u0000\u0000\u0000\u0000\u0000\u0000\u0000\u0000\u0000\u0000\u0000\u0000\u0000\u0000\u0000\u0000\u0000\u0000\u0000\u0000\u0000\u0000\u0000\u0000\u0000\u0000\u0000\u0000\u0000\u0000\u0000\u0000\u0000\u0000\u0000\u0000\u0000\u0000\u0000\u0000\u0000\u0000\u0000\u0000\u0000\u0000\u0000\u0000\u0000\u0000\u0000\u0000\u0000\u0000\u0000\u0000\u0000\u0000\u0000\u0000\u0000\u0000\u0000\u0000\u0000\u0000\u0000\u0000\u0000\u0000\u0000\u0000\u0000\u0000\u0000\u0000\u0000\u0000\u0000\u0000\u0000\u0000\u0000\u0000\u0000\u0000\u0000\u0000\u0000\u0000\u0000\u0000\u0000\u0000\u0000\u0000\u0000\u0000\u0000\u0000\u0000\u0000\u0000\u0000\u0000\u0000\u0000\u0000\u0000\u0000\u0000\u0000\u0000\u0000\u0000\u0000\u0000\u0000\u0000\u0000\u0000\u0000\u0000\u0000\u0000\u0000\u0000\u0000\u0000\u0000\u0000\u0000\u0000\u0000\u0000\u0000\u0000\u0000\u0000\u0000\u0000\u0000\u0000\u0000\u0000\u0000\u0000\u0000\u0000\u0000\u0000\u0000\u0000\u0000\u0000\u0000\u0000\u0000\u0000\u0000\u0000\u0000\u0000\u0000\u0000\u0000\u0000\u0000\u0000\u0000\u0000\u0000\u0000\u0000\u0000\u0000\u0000\u0000\u0000\u0000\u0000\u0000\u0000\u0000\u0000\u0000\u0000\u0000\u0000\u0000\u0000\u0000\u0000\u0000\u0000\u0000\u0000\u0000\u0000\u0000\u0000\u0000\u0000\u0000\u0000\u0000\u0000\u0000\u0000\u0000\u0000\u0000\u0000\u0000\u0000\u0000\u0000\u0000\u0000\u0000\u0000\u0000\u0000\u0000\u0000\u0000\u0000\u0000\u0000\u0000\u0000\u0000\u0000\u0000\u0000\u0000\u0000\u0000\u0000\u0000\u0000\u0000\u0000\u0000\u0000\u0000\u0000\u0000\u0000\u0000\u0000\u0000\u0000\u0000\u0000",
        "\u0000\u0000\u0000\u0000\u0000\u0000\u0000\u0000\u0000\u0000\u0000\u0000\u0000\u0000\u0000\u0000\u0000\u0000\u0000\u0000\u0000\u0000\u0000\u0000\u0000\u0000\u0000\u0000\u0000\u0000\u0000\u0000\u0000\u0000\u0000\u0000\u0000\u0000\u0000\u0000\u0000\u0000\u0000\u0000\u0000\u0000\u0000\u0000\u0000\u0000\u0000\u0000\u0000\u0000\u0000\u0000\u0000\u0000\u0000\u0000\u0000\u0000\u0000\u0000\u0000\u0000\u0000\u0000\u0000\u0000\u0000\u0000\u0000\u0000\u0000\u0000\u0000\u0000\u0000\u0000\u0000\u0000\u0000\u0000\u0000\u0000\u0000\u0000\u0000\u0000\u0000\u0000\u0000\u0000\u0000\u0000\u0000\u0000\u0000\u0000\u0000\u0000\u0000\u0000\u0000\u0000\u0000\u0000\u0000\u0000\u0000\u0000\u0000\u0000\u0000\u0000\u0000\u0000\u0000\u0000\u0000\u0000\u0000\u0000\u0000\u0000\u0000\u0000\u0000\u0000\u0000\u0000\u0000\u0000\u0000\u0000\u0000\u0000\u0000\u0000\u0000\u0000\u0000\u0000\u0000\u0000\u0000\u0000\u0000\u0000\u0000\u0000\u0000\u0000\u0000\u0000\u0000\u0000\u0000\u0000\u0000\u0000\u0000\u0000\u0000\u0000\u0000\u0000\u0000\u0000\u0000\u0000\u0000\u0000\u0000\u0000\u0000\u0000\u0000\u0000\u0000\u0000\u0000\u0000\u0000\u0000\u0000\u0000\u0000\u0000\u0000\u0000\u0000\u0000\u0000\u0000\u0000\u0000\u0000\u0000\u0000\u0000\u0000\u0000\u0000\u0000\u0000\u0000\u0000\u0000\u0000\u0000\u0000\u0000\u0000\u0000\u0000\u0000\u0000\u0000\u0000\u0000\u0000\u0000\u0000\u0000\u0000\u0000\u0000\u0000\u0000\u0000\u0000\u0000\u0000\u0000\u0000\u0000\u0000\u0000\u0000\u0000\u0000\u0000\u0000\u0000\u0000\u0000\u0000\u0000\u0000\u0000\u0000\u0000\u0000\u0000\u0000\u0000\u0000\u0000\u0000\u0000\u0000\u0000\u0000\u0000\u0000\u0000\u0000\u0000\u0000\u0000\u0000\u0000\u0000\u0000\u0000\u0000\u0000\u0000\u0000\u0000\u0000\u0000\u0000\u0000\u0000\u0000\u0000\u0000\u0000\u0000\u0000\u0000\u0000\u0000\u0000\u0000\u0000\u0000\u0000\u0000\u0000\u0000\u0000\u0000\u0000\u0000\u0000\u0000\u0000\u0000\u0000\u0000",
        "\u0000\u0000\u0000\u0000\u0000\u0000\u0000\u0000\u0000\u0000\u0000\u0000\u0000\u0000\u0000\u0000\u0000\u0000\u0000\u0000\u0000\u0000\u0000\u0000\u0000\u0000\u0000\u0000\u0000\u0000\u0000\u0000\u0000\u0000\u0000\u0000\u0000\u0000\u0000\u0000\u0000\u0000\u0000\u0000\u0000\u0000\u0000\u0000\u0000\u0000\u0000\u0000\u0000\u0000\u0000\u0000\u0000\u0000\u0000\u0000\u0000\u0000\u0000\u0000\u0000\u0000\u0000\u0000\u0000\u0000\u0000\u0000\u0000\u0000\u0000\u0000\u0000\u0000\u0000\u0000\u0000\u0000\u0000\u0000\u0000\u0000\u0000\u0000\u0000\u0000\u0000\u0000\u0000\u0000\u0000\u0000\u0000\u0000\u0000\u0000\u0000\u0000\u0000\u0000\u0000\u0000\u0000\u0000\u0000\u0000\u0000\u0000\u0000\u0000\u0000\u0000\u0000\u0000\u0000\u0000\u0000\u0000\u0000\u0000\u0000\u0000\u0000\u0000\u0000\u0000\u0000\u0000\u0000\u0000\u0000\u0000\u0000\u0000\u0000\u0000\u0000\u0000\u0000\u0000\u0000\u0000\u0000\u0000\u0000\u0000\u0000\u0000\u0000\u0000\u0000\u0000\u0000\u0000\u0000\u0000\u0000\u0000\u0000\u0000\u0000\u0000\u0000\u0000\u0000\u0000\u0000\u0000\u0000\u0000\u0000\u0000\u0000\u0000\u0000\u0000\u0000\u0000\u0000\u0000\u0000\u0000\u0000\u0000\u0000\u0000\u0000\u0000\u0000\u0000\u0000\u0000\u0000\u0000\u0000\u0000\u0000\u0000\u0000\u0000\u0000\u0000\u0000\u0000\u0000\u0000\u0000\u0000\u0000\u0000\u0000\u0000\u0000\u0000\u0000\u0000\u0000\u0000\u0000\u0000\u0000\u0000\u0000\u0000\u0000\u0000\u0000\u0000\u0000\u0000\u0000\u0000\u0000\u0000\u0000\u0000\u0000\u0000\u0000\u0000\u0000\u0000\u0000\u0000\u0000\u0000\u0000\u0000\u0000\u0000\u0000\u0000\u0000\u0000\u0000\u0000\u0000\u0000\u0000\u0000\u0000\u0000\u0000\u0000\u0000\u0000\u0000\u0000\u0000\u0000\u0000\u0000\u0000\u0000\u0000\u0000\u0000\u0000\u0000\u0000\u0000\u0000\u0000\u0000\u0000\u0000\u0000\u0000\u0000\u0000\u0000\u0000\u0000\u0000\u0000\u0000\u0000\u0000\u0000\u0000\u0000\u0000\u0000\u0000\u0000\u0000\u0000\u0000\u0000\u0000",
