{
  "AcquisitionMatrixPE": 70,
  "AcquisitionNumber": 1,
  "AcquisitionTime": "15:10:25.862500",
  "BandwidthPerPixelPhaseEncode": 51.948,
  "BaseResolution": 70,
  "BodyPartExamined": "HEAD",
  "CoilCombinationMethod": "Sum of Squares",
  "ConsistencyInfo": "N4_VE11C_LATEST_20160120",
  "ConversionSoftware": "dcm2niix",
  "ConversionSoftwareVersion": "v1.0.20220720",
  "DerivedVendorReportedEchoSpacing": 0.000550001,
  "DeviceSerialNumber": "66061",
  "DwellTime": 3.3e-06,
  "EchoTime": 0.022,
  "EchoTrainLength": 35,
  "EffectiveEchoSpacing": 0.000275,
  "FlipAngle": 90,
  "HeudiconvVersion": "1.1.1",
  "ImageOrientationPatientDICOM": [0.999998, 0.00143989, 0.0012323, -0.00122174, 0.986846, -0.16166],
  "ImageOrientationText": "Tra>Cor(-9.3)>Sag(0.1)",
  "ImageType": [
    "ORIGINAL",
    "PRIMARY",
    "M",
    "ND",
    "NORM",
    "MOSAIC"
],
  "ImagingFrequency": 123.255,
  "InPlanePhaseEncodingDirectionDICOM": "COL",
  "InstitutionAddress": "Street StreetNo,City/1c4204/,District,KR,ZIP",
  "InstitutionName": "SKKU",
  "InstitutionalDepartmentName": "Department",
  "MRAcquisitionType": "2D",
  "MagneticFieldStrength": 3,
  "Manufacturer": "Siemens",
  "ManufacturersModelName": "Prisma",
  "MatrixCoilMode": "GRAPPA",
  "Modality": "MR",
  "NonlinearGradientCorrection": false,
  "ParallelReductionFactorInPlane": 2,
  "PartialFourier": 1,
  "PatientPosition": "HFS",
  "PercentPhaseFOV": 100,
  "PercentSampling": 100,
  "PhaseEncodingDirection": "j-",
  "PhaseEncodingSteps": 70,
  "PhaseResolution": 1,
  "PixelBandwidth": 2165,
  "ProcedureStepDescription": "Head^PI:Others",
  "ProtocolName": "BOLD_ep2d_3x3x3_response1",
  "PulseSequenceDetails": "%SiemensSeq%\\ep2d_pace",
  "ReceiveCoilActiveElements": "HC1-7",
  "ReceiveCoilName": "HeadNeck_64",
  "ReconMatrixPE": 70,
  "RefLinesPE": 24,
  "RepetitionTime": 2,
  "SAR": 0.143969,
  "ScanOptions": "FS",
  "ScanningSequence": "EP",
  "SequenceName": "*epfid2d1_70",
  "SequenceVariant": "SK",
  "SeriesDescription": "BOLD_ep2d_3x3x3_response1",
  "SeriesNumber": 6,
  "ShimSetting": [5043, 3717, 4418, 228, -25, -71, 30, 50],
  "SliceThickness": 3,
  "SliceTiming": [0.99, 0, 1.0375, 0.0475, 1.0825, 0.095, 1.13, 0.14, 1.1775, 0.1875, 1.225, 0.235, 1.2725, 0.2825, 1.32, 0.33, 1.3675, 0.3775, 1.4125, 0.425, 1.46, 0.47, 1.5075, 0.5175, 1.555, 0.565, 1.6025, 0.6125, 1.65, 0.66, 1.6975, 0.7075, 1.7425, 0.755, 1.79, 0.8, 1.8375, 0.8475, 1.885, 0.895, 1.9325, 0.9425],
  "SoftwareVersions": "syngo MR E11",
  "SpacingBetweenSlices": 3,
  "StationName": "AWP66061",
  "TaskName": "response",
  "TotalReadoutTime": 0.018975,
  "TxRefAmp": 250.953,
  "dcmmeta_affine": [
    [-2.9999945163726807, -0.0036652132403105497, 0.004346585366874933, 108.7982406616211],
    [-0.004319668747484684, 2.9605371952056885, -0.4849744141101837, -92.98426818847656],
    [0.0036968979984521866, 0.4849798083305359, 2.9605371952056885, -64.57693481445312],
    [0.0, 0.0, 0.0, 1.0]
],
  "dcmmeta_reorient_transform": [
    [0.0, -1.0, 0.0, 69.0],
    [1.0, 0.0, 0.0, 0.0],
    [0.0, 0.0, -1.0, 41.0],
    [0.0, 0.0, 0.0, 1.0]
],
  "dcmmeta_shape": [70, 70, 42, 341],
  "dcmmeta_slice_dim": 2,
  "dcmmeta_version": 0.6,
  "global": {
    "const": {
      "AcquisitionMatrix": [70, 0, 0, 70],
      "AngioFlag": "N",
      "BitsAllocated": 16,
      "BitsStored": 12,
      "BodyPartExamined": "HEAD",
      "Columns": 490,
      "EchoNumbers": 1,
      "EchoTime": 22.0,
      "EchoTrainLength": 35,
      "FlipAngle": 90.0,
      "HighBit": 11,
      "ImageOrientationPatient": [0.99999820407652, 0.00143988963598, 0.00123229930086, -0.0012217377612, 0.98684576905799, -0.1616599376753],
      "ImagePositionPatient": [-737.95272634332, -714.02881984259, 191.33811181264],
      "ImageType": [
        "ORIGINAL",
        "PRIMARY",
        "M",
        "ND",
        "NORM",
        "MOSAIC"
],
      "ImagedNucleus": "1H",
      "ImagingFrequency": 123.254572,
      "InPlanePhaseEncodingDirection": "COL",
      "MRAcquisitionType": "2D",
      "MagneticFieldStrength": 3.0,
      "Manufacturer": "SIEMENS",
      "ManufacturerModelName": "Prisma",
      "Modality": "MR",
      "NumberOfAverages": 1.0,
      "NumberOfPhaseEncodingSteps": 70,
      "PercentPhaseFieldOfView": 100.0,
      "PercentSampling": 100.0,
      "PerformedProcedureStepStartTime": "141442.173000",
      "PhotometricInterpretation": "MONOCHROME2",
      "PixelBandwidth": 2165.0,
      "PixelRepresentation": 0,
      "PixelSpacing": [3.0, 3.0],
      "ProtocolName": "BOLD_ep2d_3x3x3_response1",
      "RepetitionTime": 2000.0,
      "Rows": 490,
      "SAR": 0.14396886246598,
      "SamplesPerPixel": 1,
      "ScanOptions": "FS",
      "ScanningSequence": "EP",
      "SequenceName": "*epfid2d1_70",
      "SequenceVariant": "SK",
      "SeriesDescription": "BOLD_ep2d_3x3x3_response1",
      "SeriesNumber": 6,
      "SeriesTime": "151118.603000",
      "SliceLocation": 74.461822912144,
      "SliceThickness": 3.0,
      "SmallestImagePixelValue": 0,
      "SoftwareVersions": "syngo MR E11",
      "SpacingBetweenSlices": 2.9999999694137,
      "SpecificCharacterSet": "ISO_IR 100",
      "StudyID": "1",
      "StudyTime": "141442.093000",
      "TransmitCoilName": "Body",
      "VariableFlipAngleFlag": "N",
      "WindowCenterWidthExplanation": "Algo1",
      "dBdt": 0.0},
    "slices": {}
  },
  "time": {
    "samples": {
      "AcquisitionNumber": [1, 2, 3, 4, 5, 6, 7, 8, 9, 10, 11, 12, 13, 14, 15, 16, 17, 18, 19, 20, 21, 22, 23, 24, 25, 26, 27, 28, 29, 30, 31, 32, 33, 34, 35, 36, 37, 38, 39, 40, 41, 42, 43, 44, 45, 46, 47, 48, 49, 50, 51, 52, 53, 54, 55, 56, 57, 58, 59, 60, 61, 62, 63, 64, 65, 66, 67, 68, 69, 70, 71, 72, 73, 74, 75, 76, 77, 78, 79, 80, 81, 82, 83, 84, 85, 86, 87, 88, 89, 90, 91, 92, 93, 94, 95, 96, 97, 98, 99, 100, 101, 102, 103, 104, 105, 106, 107, 108, 109, 110, 111, 112, 113, 114, 115, 116, 117, 118, 119, 120, 121, 122, 123, 124, 125, 126, 127, 128, 129, 130, 131, 132, 133, 134, 135, 136, 137, 138, 139, 140, 141, 142, 143, 144, 145, 146, 147, 148, 149, 150, 151, 152, 153, 154, 155, 156, 157, 158, 159, 160, 161, 162, 163, 164, 165, 166, 167, 168, 169, 170, 171, 172, 173, 174, 175, 176, 177, 178, 179, 180, 181, 182, 183, 184, 185, 186, 187, 188, 189, 190, 191, 192, 193, 194, 195, 196, 197, 198, 199, 200, 201, 202, 203, 204, 205, 206, 207, 208, 209, 210, 211, 212, 213, 214, 215, 216, 217, 218, 219, 220, 221, 222, 223, 224, 225, 226, 227, 228, 229, 230, 231, 232, 233, 234, 235, 236, 237, 238, 239, 240, 241, 242, 243, 244, 245, 246, 247, 248, 249, 250, 251, 252, 253, 254, 255, 256, 257, 258, 259, 260, 261, 262, 263, 264, 265, 266, 267, 268, 269, 270, 271, 272, 273, 274, 275, 276, 277, 278, 279, 280, 281, 282, 283, 284, 285, 286, 287, 288, 289, 290, 291, 292, 293, 294, 295, 296, 297, 298, 299, 300, 301, 302, 303, 304, 305, 306, 307, 308, 309, 310, 311, 312, 313, 314, 315, 316, 317, 318, 319, 320, 321, 322, 323, 324, 325, 326, 327, 328, 329, 330, 331, 332, 333, 334, 335, 336, 337, 338, 339, 340, 341],
      "AcquisitionTime": ["151025.862500", "151027.862500", "151029.862500", "151031.862500", "151033.862500", "151035.862500", "151037.862500", "151039.862500", "151041.862500", "151043.862500", "151045.862500", "151047.862500", "151049.862500", "151051.862500", "151053.862500", "151055.862500", "151057.862500", "151059.862500", "151101.862500", "151103.862500", "151105.862500", "151107.862500", "151109.862500", "151111.862500", "151113.862500", "151115.862500", "151117.862500", "151119.862500", "151121.862500", "151123.862500", "151125.862500", "151127.862500", "151129.862500", "151131.862500", "151133.862500", "151135.862500", "151137.862500", "151139.862500", "151141.862500", "151143.862500", "151145.862500", "151147.862500", "151149.862500", "151151.862500", "151153.862500", "151155.862500", "151157.862500", "151159.862500", "151201.862500", "151203.862500", "151205.862500", "151207.862500", "151209.862500", "151211.862500", "151213.862500", "151215.862500", "151217.862500", "151219.862500", "151221.862500", "151223.862500", "151225.862500", "151227.862500", "151229.862500", "151231.862500", "151233.862500", "151235.862500", "151237.862500", "151239.862500", "151241.862500", "151243.862500", "151245.862500", "151247.862500", "151249.862500", "151251.862500", "151253.862500", "151255.862500", "151257.862500", "151259.862500", "151301.862500", "151303.862500", "151305.862500", "151307.862500", "151309.862500", "151311.862500", "151313.862500", "151315.862500", "151317.862500", "151319.862500", "151321.862500", "151323.862500", "151325.862500", "151327.862500", "151329.862500", "151331.862500", "151333.862500", "151335.862500", "151337.862500", "151339.862500", "151341.862500", "151343.862500", "151345.862500", "151347.862500", "151349.862500", "151351.862500", "151353.862500", "151355.862500", "151357.862500", "151359.862500", "151401.862500", "151403.862500", "151405.862500", "151407.862500", "151409.862500", "151411.862500", "151413.862500", "151415.862500", "151417.862500", "151419.862500", "151421.862500", "151423.862500", "151425.862500", "151427.862500", "151429.862500", "151431.862500", "151433.862500", "151435.862500", "151437.862500", "151439.862500", "151441.862500", "151443.862500", "151445.862500", "151447.862500", "151449.862500", "151451.862500", "151453.862500", "151455.862500", "151457.862500", "151459.862500", "151501.862500", "151503.862500", "151505.862500", "151507.862500", "151509.862500", "151511.862500", "151513.862500", "151515.862500", "151517.862500", "151519.862500", "151521.862500", "151523.862500", "151525.862500", "151527.862500", "151529.862500", "151531.862500", "151533.862500", "151535.862500", "151537.862500", "151539.862500", "151541.862500", "151543.862500", "151545.862500", "151547.862500", "151549.862500", "151551.862500", "151553.862500", "151555.862500", "151557.862500", "151559.862500", "151601.862500", "151603.862500", "151605.862500", "151607.862500", "151609.862500", "151611.862500", "151613.862500", "151615.862500", "151617.862500", "151619.862500", "151621.862500", "151623.862500", "151625.862500", "151627.862500", "151629.862500", "151631.862500", "151633.862500", "151635.862500", "151637.862500", "151639.862500", "151641.862500", "151643.862500", "151645.862500", "151647.862500", "151649.862500", "151651.862500", "151653.862500", "151655.862500", "151657.862500", "151659.862500", "151701.862500", "151703.862500", "151705.862500", "151707.862500", "151709.862500", "151711.862500", "151713.862500", "151715.862500", "151717.862500", "151719.862500", "151721.862500", "151723.862500", "151725.862500", "151727.862500", "151729.862500", "151731.862500", "151733.862500", "151735.862500", "151737.862500", "151739.862500", "151741.862500", "151743.862500", "151745.862500", "151747.862500", "151749.862500", "151751.862500", "151753.862500", "151755.862500", "151757.862500", "151759.862500", "151801.862500", "151803.862500", "151805.862500", "151807.862500", "151809.862500", "151811.862500", "151813.862500", "151815.862500", "151817.862500", "151819.862500", "151821.862500", "151823.862500", "151825.862500", "151827.862500", "151829.862500", "151831.862500", "151833.862500", "151835.862500", "151837.862500", "151839.862500", "151841.862500", "151843.862500", "151845.862500", "151847.862500", "151849.862500", "151851.862500", "151853.862500", "151855.862500", "151857.862500", "151859.862500", "151901.862500", "151903.862500", "151905.862500", "151907.862500", "151909.862500", "151911.862500", "151913.862500", "151915.862500", "151917.862500", "151919.862500", "151921.862500", "151923.862500", "151925.862500", "151927.862500", "151929.862500", "151931.862500", "151933.862500", "151935.862500", "151937.862500", "151939.862500", "151941.862500", "151943.862500", "151945.862500", "151947.862500", "151949.862500", "151951.862500", "151953.862500", "151955.862500", "151957.862500", "151959.862500", "152001.862500", "152003.862500", "152005.862500", "152007.862500", "152009.862500", "152011.862500", "152013.862500", "152015.862500", "152017.862500", "152019.862500", "152021.862500", "152023.862500", "152025.862500", "152027.862500", "152029.862500", "152031.862500", "152033.862500", "152035.862500", "152037.862500", "152039.862500", "152041.862500", "152043.862500", "152045.862500", "152047.862500", "152049.862500", "152051.862500", "152053.862500", "152055.862500", "152057.862500", "152059.862500", "152101.862500", "152103.862500", "152105.862500", "152107.862500", "152109.862500", "152111.862500", "152113.862500", "152115.862500", "152117.862500", "152119.862500", "152121.862500", "152123.862500", "152125.862500", "152127.862500", "152129.862500", "152131.862500", "152133.862500", "152135.862500", "152137.862500", "152139.862500", "152141.862500", "152143.862500", "152145.862500"],
      "ContentTime": ["151118.606000", "151118.610000", "151118.612000", "151118.623000", "151118.626000", "151118.628000", "151118.631000", "151118.634000", "151118.637000", "151118.639000", "151118.642000", "151118.645000", "151118.648000", "151118.650000", "151118.655000", "151118.657000", "151118.660000", "151118.663000", "151118.666000", "151118.668000", "151118.671000", "151118.674000", "151118.677000", "151118.679000", "151118.682000", "151118.685000", "151158.601000", "151158.604000", "151158.607000", "151158.609000", "151158.612000", "151158.615000", "151158.618000", "151158.620000", "151158.623000", "151158.626000", "151158.629000", "151158.632000", "151158.634000", "151158.637000", "151158.640000", "151158.643000", "151158.645000", "151158.648000", "151158.651000", "151158.654000", "151238.602000", "151238.605000", "151238.608000", "151238.610000", "151238.613000", "151238.616000", "151238.619000", "151238.621000", "151238.624000", "151238.627000", "151238.630000", "151238.632000", "151238.635000", "151238.638000", "151238.641000", "151238.644000", "151238.646000", "151238.649000", "151238.659000", "151238.662000", "151318.602000", "151318.605000", "151318.608000", "151318.610000", "151318.613000", "151318.616000", "151318.619000", "151318.621000", "151318.624000", "151318.627000", "151318.630000", "151318.632000", "151318.635000", "151318.638000", "151318.641000", "151318.643000", "151318.646000", "151318.649000", "151318.652000", "151318.655000", "151358.602000", "151358.605000", "151358.607000", "151358.610000", "151358.613000", "151358.616000", "151358.618000", "151358.621000", "151358.624000", "151358.627000", "151358.629000", "151358.632000", "151358.635000", "151358.638000", "151358.641000", "151358.643000", "151358.646000", "151358.649000", "151358.652000", "151358.655000", "151438.602000", "151438.605000", "151438.607000", "151438.610000", "151438.613000", "151438.616000", "151438.618000", "151438.621000", "151438.624000", "151438.627000", "151438.630000", "151438.633000", "151438.635000", "151438.650000", "151438.653000", "151438.655000", "151438.658000", "151438.661000", "151438.664000", "151438.667000", "151518.602000", "151518.605000", "151518.608000", "151518.610000", "151518.613000", "151518.616000", "151518.619000", "151518.621000", "151518.624000", "151518.627000", "151518.630000", "151518.632000", "151518.635000", "151518.638000", "151518.641000", "151518.643000", "151518.646000", "151518.649000", "151518.652000", "151518.654000", "151558.602000", "151558.605000", "151558.607000", "151558.610000", "151558.617000", "151558.620000", "151558.623000", "151558.626000", "151558.629000", "151558.631000", "151558.634000", "151558.637000", "151558.640000", "151558.642000", "151558.645000", "151558.648000", "151558.651000", "151558.653000", "151558.656000", "151558.659000", "151638.601000", "151638.604000", "151638.607000", "151638.609000", "151638.612000", "151638.615000", "151638.618000", "151638.620000", "151638.623000", "151638.626000", "151638.629000", "151638.631000", "151638.634000", "151638.637000", "151638.640000", "151638.643000", "151638.645000", "151638.648000", "151638.651000", "151638.654000", "151718.602000", "151718.605000", "151718.608000", "151718.610000", "151718.613000", "151718.616000", "151718.619000", "151718.622000", "151718.624000", "151718.627000", "151718.630000", "151718.633000", "151718.635000", "151718.638000", "151718.641000", "151718.644000", "151718.647000", "151718.650000", "151718.652000", "151718.655000", "151758.602000", "151758.605000", "151758.607000", "151758.610000", "151758.613000", "151758.616000", "151758.619000", "151758.621000", "151758.624000", "151758.627000", "151758.641000", "151758.643000", "151758.646000", "151758.649000", "151758.652000", "151758.654000", "151758.657000", "151758.660000", "151758.663000", "151758.665000", "151838.602000", "151838.605000", "151838.607000", "151838.610000", "151838.613000", "151838.616000", "151838.619000", "151838.622000", "151838.624000", "151838.627000", "151838.630000", "151838.633000", "151838.636000", "151838.638000", "151838.641000", "151838.644000", "151838.647000", "151838.650000", "151838.652000", "151838.655000", "151918.602000", "151918.605000", "151918.608000", "151918.610000", "151918.613000", "151918.616000", "151918.618000", "151918.621000", "151918.624000", "151918.627000", "151918.630000", "151918.632000", "151918.635000", "151918.638000", "151918.641000", "151918.643000", "151918.646000", "151918.649000", "151918.652000", "151918.654000", "151958.602000", "151958.610000", "151958.613000", "151958.615000", "151958.618000", "151958.621000", "151958.624000", "151958.627000", "151958.629000", "151958.632000", "151958.635000", "151958.638000", "151958.640000", "151958.643000", "151958.646000", "151958.649000", "151958.652000", "151958.654000", "151958.657000", "151958.660000", "152038.602000", "152038.605000", "152038.607000", "152038.611000", "152038.613000", "152038.616000", "152038.619000", "152038.622000", "152038.624000", "152038.627000", "152038.630000", "152038.633000", "152038.636000", "152038.638000", "152038.641000", "152038.644000", "152038.647000", "152038.649000", "152038.652000", "152038.655000", "152118.601000", "152118.604000", "152118.606000", "152118.609000", "152118.612000", "152118.615000", "152118.618000", "152118.621000", "152118.623000", "152118.626000", "152118.629000", "152118.632000", "152118.634000", "152118.637000", "152118.640000", "152118.643000", "152118.645000", "152118.648000", "152118.651000", "152118.654000", "152147.192000", "152147.195000", "152147.198000", "152147.201000", "152147.203000", "152147.207000", "152147.209000", "152147.212000", "152147.215000", "152147.218000", "152147.222000", "152147.226000", "152147.230000", "152147.234000", "152147.238000"],
      "DataSetTrailingPadding": [
        "\u0000\u0000\u0000\u0000\u0000\u0000\u0000\u0000\u0000\u0000\u0000\u0000\u0000\u0000\u0000\u0000\u0000\u0000\u0000\u0000\u0000\u0000\u0000\u0000\u0000\u0000\u0000\u0000",
        "\u0000\u0000\u0000\u0000\u0000\u0000\u0000\u0000\u0000\u0000\u0000\u0000\u0000\u0000\u0000\u0000\u0000\u0000\u0000\u0000\u0000\u0000\u0000\u0000\u0000\u0000\u0000\u0000\u0000\u0000",
        "\u0000\u0000\u0000\u0000\u0000\u0000\u0000\u0000\u0000\u0000\u0000\u0000\u0000\u0000\u0000\u0000\u0000\u0000\u0000\u0000\u0000\u0000\u0000\u0000\u0000\u0000\u0000\u0000\u0000\u0000",
        "\u0000\u0000\u0000\u0000\u0000\u0000\u0000\u0000\u0000\u0000\u0000\u0000\u0000\u0000\u0000\u0000\u0000\u0000\u0000\u0000\u0000\u0000\u0000\u0000\u0000\u0000\u0000\u0000\u0000\u0000",
        "\u0000\u0000\u0000\u0000\u0000\u0000\u0000\u0000\u0000\u0000\u0000\u0000\u0000\u0000\u0000\u0000\u0000\u0000\u0000\u0000\u0000\u0000\u0000\u0000\u0000\u0000\u0000\u0000",
        "\u0000\u0000\u0000\u0000\u0000\u0000\u0000\u0000\u0000\u0000\u0000\u0000\u0000\u0000\u0000\u0000\u0000\u0000\u0000\u0000\u0000\u0000\u0000\u0000\u0000\u0000\u0000\u0000",
        "\u0000\u0000\u0000\u0000\u0000\u0000\u0000\u0000\u0000\u0000\u0000\u0000\u0000\u0000\u0000\u0000\u0000\u0000\u0000\u0000\u0000\u0000\u0000\u0000\u0000\u0000\u0000\u0000",
        "\u0000\u0000\u0000\u0000\u0000\u0000\u0000\u0000\u0000\u0000\u0000\u0000\u0000\u0000\u0000\u0000\u0000\u0000\u0000\u0000\u0000\u0000\u0000\u0000\u0000\u0000\u0000\u0000",
        "\u0000\u0000\u0000\u0000\u0000\u0000\u0000\u0000\u0000\u0000\u0000\u0000\u0000\u0000\u0000\u0000\u0000\u0000\u0000\u0000\u0000\u0000\u0000\u0000\u0000\u0000\u0000\u0000",
        "\u0000\u0000\u0000\u0000\u0000\u0000\u0000\u0000\u0000\u0000\u0000\u0000\u0000\u0000\u0000\u0000\u0000\u0000\u0000\u0000\u0000\u0000\u0000\u0000\u0000\u0000\u0000\u0000",
        "\u0000\u0000\u0000\u0000\u0000\u0000\u0000\u0000\u0000\u0000\u0000\u0000\u0000\u0000\u0000\u0000\u0000\u0000\u0000\u0000\u0000\u0000\u0000\u0000\u0000\u0000\u0000\u0000",
        "\u0000\u0000\u0000\u0000\u0000\u0000\u0000\u0000\u0000\u0000\u0000\u0000\u0000\u0000\u0000\u0000\u0000\u0000\u0000\u0000\u0000\u0000\u0000\u0000\u0000\u0000\u0000\u0000",
        "\u0000\u0000\u0000\u0000\u0000\u0000\u0000\u0000\u0000\u0000\u0000\u0000\u0000\u0000\u0000\u0000\u0000\u0000\u0000\u0000\u0000\u0000\u0000\u0000\u0000\u0000\u0000\u0000",
        "\u0000\u0000\u0000\u0000\u0000\u0000\u0000\u0000\u0000\u0000\u0000\u0000\u0000\u0000\u0000\u0000\u0000\u0000\u0000\u0000\u0000\u0000\u0000\u0000\u0000\u0000\u0000\u0000",
        "\u0000\u0000\u0000\u0000\u0000\u0000\u0000\u0000\u0000\u0000\u0000\u0000\u0000\u0000\u0000\u0000\u0000\u0000\u0000\u0000\u0000\u0000\u0000\u0000\u0000\u0000\u0000\u0000",
        "\u0000\u0000\u0000\u0000\u0000\u0000\u0000\u0000\u0000\u0000\u0000\u0000\u0000\u0000\u0000\u0000\u0000\u0000\u0000\u0000\u0000\u0000\u0000\u0000\u0000\u0000\u0000\u0000",
        "\u0000\u0000\u0000\u0000\u0000\u0000\u0000\u0000\u0000\u0000\u0000\u0000\u0000\u0000\u0000\u0000\u0000\u0000\u0000\u0000\u0000\u0000\u0000\u0000\u0000\u0000\u0000\u0000",
        "\u0000\u0000\u0000\u0000\u0000\u0000\u0000\u0000\u0000\u0000\u0000\u0000\u0000\u0000\u0000\u0000\u0000\u0000\u0000\u0000\u0000\u0000\u0000\u0000\u0000\u0000\u0000\u0000",
        "\u0000\u0000\u0000\u0000\u0000\u0000\u0000\u0000\u0000\u0000\u0000\u0000\u0000\u0000\u0000\u0000\u0000\u0000\u0000\u0000\u0000\u0000\u0000\u0000\u0000\u0000\u0000\u0000",
        "\u0000\u0000\u0000\u0000\u0000\u0000\u0000\u0000\u0000\u0000\u0000\u0000\u0000\u0000\u0000\u0000\u0000\u0000\u0000\u0000\u0000\u0000\u0000\u0000\u0000\u0000\u0000\u0000",
        "\u0000\u0000\u0000\u0000\u0000\u0000\u0000\u0000\u0000\u0000\u0000\u0000\u0000\u0000\u0000\u0000\u0000\u0000\u0000\u0000\u0000\u0000\u0000\u0000\u0000\u0000\u0000\u0000",
        "\u0000\u0000\u0000\u0000\u0000\u0000\u0000\u0000\u0000\u0000\u0000\u0000\u0000\u0000\u0000\u0000\u0000\u0000\u0000\u0000\u0000\u0000\u0000\u0000\u0000\u0000\u0000\u0000",
        "\u0000\u0000\u0000\u0000\u0000\u0000\u0000\u0000\u0000\u0000\u0000\u0000\u0000\u0000\u0000\u0000\u0000\u0000\u0000\u0000\u0000\u0000\u0000\u0000\u0000\u0000\u0000\u0000",
        "\u0000\u0000\u0000\u0000\u0000\u0000\u0000\u0000\u0000\u0000\u0000\u0000\u0000\u0000\u0000\u0000\u0000\u0000\u0000\u0000\u0000\u0000\u0000\u0000\u0000\u0000\u0000\u0000",
        "\u0000\u0000\u0000\u0000\u0000\u0000\u0000\u0000\u0000\u0000\u0000\u0000\u0000\u0000\u0000\u0000\u0000\u0000\u0000\u0000\u0000\u0000\u0000\u0000\u0000\u0000\u0000\u0000",
        "\u0000\u0000\u0000\u0000\u0000\u0000\u0000\u0000\u0000\u0000\u0000\u0000\u0000\u0000\u0000\u0000\u0000\u0000\u0000\u0000\u0000\u0000\u0000\u0000\u0000\u0000\u0000\u0000",
        "\u0000\u0000\u0000\u0000\u0000\u0000\u0000\u0000\u0000\u0000\u0000\u0000\u0000\u0000\u0000\u0000\u0000\u0000\u0000\u0000\u0000\u0000\u0000\u0000\u0000\u0000\u0000\u0000",
        "\u0000\u0000\u0000\u0000\u0000\u0000\u0000\u0000\u0000\u0000\u0000\u0000\u0000\u0000\u0000\u0000\u0000\u0000\u0000\u0000\u0000\u0000\u0000\u0000\u0000\u0000\u0000\u0000",
        "\u0000\u0000\u0000\u0000\u0000\u0000\u0000\u0000\u0000\u0000\u0000\u0000\u0000\u0000\u0000\u0000\u0000\u0000\u0000\u0000\u0000\u0000\u0000\u0000\u0000\u0000\u0000\u0000",
        "\u0000\u0000\u0000\u0000\u0000\u0000\u0000\u0000\u0000\u0000\u0000\u0000\u0000\u0000\u0000\u0000\u0000\u0000\u0000\u0000\u0000\u0000\u0000\u0000\u0000\u0000\u0000\u0000",
        "\u0000\u0000\u0000\u0000\u0000\u0000\u0000\u0000\u0000\u0000\u0000\u0000\u0000\u0000\u0000\u0000\u0000\u0000\u0000\u0000\u0000\u0000\u0000\u0000\u0000\u0000\u0000\u0000",
        "\u0000\u0000\u0000\u0000\u0000\u0000\u0000\u0000\u0000\u0000\u0000\u0000\u0000\u0000\u0000\u0000\u0000\u0000\u0000\u0000\u0000\u0000\u0000\u0000\u0000\u0000\u0000\u0000",
        "\u0000\u0000\u0000\u0000\u0000\u0000\u0000\u0000\u0000\u0000\u0000\u0000\u0000\u0000\u0000\u0000\u0000\u0000\u0000\u0000\u0000\u0000\u0000\u0000\u0000\u0000\u0000\u0000",
        "\u0000\u0000\u0000\u0000\u0000\u0000\u0000\u0000\u0000\u0000\u0000\u0000\u0000\u0000\u0000\u0000\u0000\u0000\u0000\u0000\u0000\u0000\u0000\u0000\u0000\u0000\u0000\u0000",
        "\u0000\u0000\u0000\u0000\u0000\u0000\u0000\u0000\u0000\u0000\u0000\u0000\u0000\u0000\u0000\u0000\u0000\u0000\u0000\u0000\u0000\u0000\u0000\u0000\u0000\u0000\u0000\u0000",
        "\u0000\u0000\u0000\u0000\u0000\u0000\u0000\u0000\u0000\u0000\u0000\u0000\u0000\u0000\u0000\u0000\u0000\u0000\u0000\u0000\u0000\u0000\u0000\u0000\u0000\u0000\u0000\u0000",
        "\u0000\u0000\u0000\u0000\u0000\u0000\u0000\u0000\u0000\u0000\u0000\u0000\u0000\u0000\u0000\u0000\u0000\u0000\u0000\u0000\u0000\u0000\u0000\u0000\u0000\u0000\u0000\u0000",
        "\u0000\u0000\u0000\u0000\u0000\u0000\u0000\u0000\u0000\u0000\u0000\u0000\u0000\u0000\u0000\u0000\u0000\u0000\u0000\u0000\u0000\u0000\u0000\u0000\u0000\u0000\u0000\u0000",
        "\u0000\u0000\u0000\u0000\u0000\u0000\u0000\u0000\u0000\u0000\u0000\u0000\u0000\u0000\u0000\u0000\u0000\u0000\u0000\u0000\u0000\u0000\u0000\u0000\u0000\u0000\u0000\u0000",
        "\u0000\u0000\u0000\u0000\u0000\u0000\u0000\u0000\u0000\u0000\u0000\u0000\u0000\u0000\u0000\u0000\u0000\u0000\u0000\u0000\u0000\u0000\u0000\u0000\u0000\u0000\u0000\u0000",
        "\u0000\u0000\u0000\u0000\u0000\u0000\u0000\u0000\u0000\u0000\u0000\u0000\u0000\u0000\u0000\u0000\u0000\u0000\u0000\u0000\u0000\u0000\u0000\u0000\u0000\u0000\u0000\u0000",
        "\u0000\u0000\u0000\u0000\u0000\u0000\u0000\u0000\u0000\u0000\u0000\u0000\u0000\u0000\u0000\u0000\u0000\u0000\u0000\u0000\u0000\u0000\u0000\u0000\u0000\u0000\u0000\u0000",
        "\u0000\u0000\u0000\u0000\u0000\u0000\u0000\u0000\u0000\u0000\u0000\u0000\u0000\u0000\u0000\u0000\u0000\u0000\u0000\u0000\u0000\u0000\u0000\u0000\u0000\u0000\u0000\u0000",
        "\u0000\u0000\u0000\u0000\u0000\u0000\u0000\u0000\u0000\u0000\u0000\u0000\u0000\u0000\u0000\u0000\u0000\u0000\u0000\u0000\u0000\u0000\u0000\u0000\u0000\u0000\u0000\u0000",
        "\u0000\u0000\u0000\u0000\u0000\u0000\u0000\u0000\u0000\u0000\u0000\u0000\u0000\u0000\u0000\u0000\u0000\u0000\u0000\u0000\u0000\u0000\u0000\u0000\u0000\u0000\u0000\u0000",
        "\u0000\u0000\u0000\u0000\u0000\u0000\u0000\u0000\u0000\u0000\u0000\u0000\u0000\u0000\u0000\u0000\u0000\u0000\u0000\u0000\u0000\u0000\u0000\u0000\u0000\u0000\u0000\u0000",
        "\u0000\u0000\u0000\u0000\u0000\u0000\u0000\u0000\u0000\u0000\u0000\u0000\u0000\u0000\u0000\u0000\u0000\u0000\u0000\u0000\u0000\u0000\u0000\u0000\u0000\u0000\u0000\u0000",
        "\u0000\u0000\u0000\u0000\u0000\u0000\u0000\u0000\u0000\u0000\u0000\u0000\u0000\u0000\u0000\u0000\u0000\u0000\u0000\u0000\u0000\u0000\u0000\u0000\u0000\u0000\u0000\u0000",
        "\u0000\u0000\u0000\u0000\u0000\u0000\u0000\u0000\u0000\u0000\u0000\u0000\u0000\u0000\u0000\u0000\u0000\u0000\u0000\u0000\u0000\u0000\u0000\u0000\u0000\u0000\u0000\u0000",
        "\u0000\u0000\u0000\u0000\u0000\u0000\u0000\u0000\u0000\u0000\u0000\u0000\u0000\u0000\u0000\u0000\u0000\u0000\u0000\u0000\u0000\u0000\u0000\u0000",
        "\u0000\u0000\u0000\u0000\u0000\u0000\u0000\u0000\u0000\u0000\u0000\u0000\u0000\u0000\u0000\u0000\u0000\u0000\u0000\u0000\u0000\u0000\u0000\u0000",
        "\u0000\u0000\u0000\u0000\u0000\u0000\u0000\u0000\u0000\u0000\u0000\u0000\u0000\u0000\u0000\u0000\u0000\u0000\u0000\u0000\u0000\u0000\u0000\u0000",
        "\u0000\u0000\u0000\u0000\u0000\u0000\u0000\u0000\u0000\u0000\u0000\u0000\u0000\u0000\u0000\u0000\u0000\u0000\u0000\u0000\u0000\u0000\u0000\u0000",
        "\u0000\u0000\u0000\u0000\u0000\u0000\u0000\u0000\u0000\u0000\u0000\u0000\u0000\u0000\u0000\u0000\u0000\u0000\u0000\u0000\u0000\u0000",
        "\u0000\u0000\u0000\u0000\u0000\u0000\u0000\u0000\u0000\u0000\u0000\u0000\u0000\u0000\u0000\u0000\u0000\u0000\u0000\u0000\u0000\u0000",
        "\u0000\u0000\u0000\u0000\u0000\u0000\u0000\u0000\u0000\u0000\u0000\u0000\u0000\u0000\u0000\u0000\u0000\u0000\u0000\u0000\u0000\u0000\u0000\u0000",
        "\u0000\u0000\u0000\u0000\u0000\u0000\u0000\u0000\u0000\u0000\u0000\u0000\u0000\u0000\u0000\u0000\u0000\u0000\u0000\u0000\u0000\u0000\u0000\u0000",
        "\u0000\u0000\u0000\u0000\u0000\u0000\u0000\u0000\u0000\u0000\u0000\u0000\u0000\u0000\u0000\u0000\u0000\u0000\u0000\u0000\u0000\u0000\u0000\u0000",
        "\u0000\u0000\u0000\u0000\u0000\u0000\u0000\u0000\u0000\u0000\u0000\u0000\u0000\u0000\u0000\u0000\u0000\u0000\u0000\u0000\u0000\u0000\u0000\u0000",
        "\u0000\u0000\u0000\u0000\u0000\u0000\u0000\u0000\u0000\u0000\u0000\u0000\u0000\u0000\u0000\u0000\u0000\u0000\u0000\u0000\u0000\u0000",
        "\u0000\u0000\u0000\u0000\u0000\u0000\u0000\u0000\u0000\u0000\u0000\u0000\u0000\u0000\u0000\u0000\u0000\u0000\u0000\u0000\u0000\u0000",
        "\u0000\u0000\u0000\u0000\u0000\u0000\u0000\u0000\u0000\u0000\u0000\u0000\u0000\u0000\u0000\u0000\u0000\u0000\u0000\u0000\u0000\u0000\u0000\u0000",
        "\u0000\u0000\u0000\u0000\u0000\u0000\u0000\u0000\u0000\u0000\u0000\u0000\u0000\u0000\u0000\u0000\u0000\u0000\u0000\u0000\u0000\u0000",
        "\u0000\u0000\u0000\u0000\u0000\u0000\u0000\u0000\u0000\u0000\u0000\u0000\u0000\u0000\u0000\u0000\u0000\u0000\u0000\u0000\u0000\u0000\u0000\u0000",
        "\u0000\u0000\u0000\u0000\u0000\u0000\u0000\u0000\u0000\u0000\u0000\u0000\u0000\u0000\u0000\u0000\u0000\u0000\u0000\u0000\u0000\u0000",
