{
  "AcquisitionMatrixPE": 70,
  "AcquisitionNumber": 1,
  "AcquisitionTime": "14:53:14.105000",
  "BandwidthPerPixelPhaseEncode": 51.948,
  "BaseResolution": 70,
  "BodyPartExamined": "HEAD",
  "CoilCombinationMethod": "Sum of Squares",
  "ConsistencyInfo": "N4_VE11C_LATEST_20160120",
  "ConversionSoftware": "dcm2niix",
  "ConversionSoftwareVersion": "v1.0.20220720",
  "DerivedVendorReportedEchoSpacing": 0.000550001,
  "DeviceSerialNumber": "66061",
  "DwellTime": 3.3e-06,
  "EchoTime": 0.022,
  "EchoTrainLength": 35,
  "EffectiveEchoSpacing": 0.000275,
  "FlipAngle": 90,
  "HeudiconvVersion": "1.1.1",
  "ImageOrientationPatientDICOM": [0.999998, 0.00143989, 0.0012323, -0.00122174, 0.986846, -0.16166],
  "ImageOrientationText": "Tra>Cor(-9.3)>Sag(0.1)",
  "ImageType": [
    "ORIGINAL",
    "PRIMARY",
    "M",
    "ND",
    "NORM",
    "MOSAIC"
],
  "ImagingFrequency": 123.255,
  "InPlanePhaseEncodingDirectionDICOM": "COL",
  "InstitutionAddress": "Street StreetNo,City/1c4204/,District,KR,ZIP",
  "InstitutionName": "SKKU",
  "InstitutionalDepartmentName": "Department",
  "MRAcquisitionType": "2D",
  "MagneticFieldStrength": 3,
  "Manufacturer": "Siemens",
  "ManufacturersModelName": "Prisma",
  "MatrixCoilMode": "GRAPPA",
  "Modality": "MR",
  "NonlinearGradientCorrection": false,
  "ParallelReductionFactorInPlane": 2,
  "PartialFourier": 1,
  "PatientPosition": "HFS",
  "PercentPhaseFOV": 100,
  "PercentSampling": 100,
  "PhaseEncodingDirection": "j-",
  "PhaseEncodingSteps": 70,
  "PhaseResolution": 1,
  "PixelBandwidth": 2165,
  "ProcedureStepDescription": "Head^PI:Others",
  "ProtocolName": "BOLD_ep2d_3x3x3_dimension2",
  "PulseSequenceDetails": "%SiemensSeq%\\ep2d_pace",
  "ReceiveCoilActiveElements": "HC1-7",
  "ReceiveCoilName": "HeadNeck_64",
  "ReconMatrixPE": 70,
  "RefLinesPE": 24,
  "RepetitionTime": 2,
  "SAR": 0.143969,
  "ScanOptions": "FS",
  "ScanningSequence": "EP",
  "SequenceName": "*epfid2d1_70",
  "SequenceVariant": "SK",
  "SeriesDescription": "BOLD_ep2d_3x3x3_dimension2",
  "SeriesNumber": 5,
  "ShimSetting": [5043, 3717, 4418, 228, -25, -71, 30, 50],
  "SliceThickness": 3,
  "SliceTiming": [0.99, 0, 1.035, 0.045, 1.0825, 0.0925, 1.13, 0.14, 1.1775, 0.1875, 1.225, 0.235, 1.2725, 0.2825, 1.32, 0.33, 1.365, 0.375, 1.4125, 0.4225, 1.46, 0.47, 1.5075, 0.5175, 1.555, 0.565, 1.6025, 0.6125, 1.65, 0.66, 1.695, 0.705, 1.7425, 0.7525, 1.79, 0.8, 1.8375, 0.8475, 1.885, 0.895, 1.9325, 0.9425],
  "SoftwareVersions": "syngo MR E11",
  "SpacingBetweenSlices": 3,
  "StationName": "AWP66061",
  "TaskName": "dimension",
  "TotalReadoutTime": 0.018975,
  "TxRefAmp": 250.953,
  "dcmmeta_affine": [
    [-2.9999945163726807, -0.0036652132403105497, 0.004346585366874933, 108.7982406616211],
    [-0.004319668747484684, 2.9605371952056885, -0.4849744141101837, -92.98426818847656],
    [0.0036968979984521866, 0.4849798083305359, 2.9605371952056885, -64.57693481445312],
    [0.0, 0.0, 0.0, 1.0]
],
  "dcmmeta_reorient_transform": [
    [0.0, -1.0, 0.0, 69.0],
    [1.0, 0.0, 0.0, 0.0],
    [0.0, 0.0, -1.0, 41.0],
    [0.0, 0.0, 0.0, 1.0]
],
  "dcmmeta_shape": [70, 70, 42, 437],
  "dcmmeta_slice_dim": 2,
  "dcmmeta_version": 0.6,
  "global": {
    "const": {
      "AcquisitionMatrix": [70, 0, 0, 70],
      "AngioFlag": "N",
      "BitsAllocated": 16,
      "BitsStored": 12,
      "BodyPartExamined": "HEAD",
      "Columns": 490,
      "EchoNumbers": 1,
      "EchoTime": 22.0,
      "EchoTrainLength": 35,
      "FlipAngle": 90.0,
      "HighBit": 11,
      "ImageOrientationPatient": [0.99999820407652, 0.00143988963598, 0.00123229930086, -0.0012217377612, 0.98684576905799, -0.1616599376753],
      "ImagePositionPatient": [-737.95272634332, -714.02881984259, 191.33811181264],
      "ImageType": [
        "ORIGINAL",
        "PRIMARY",
        "M",
        "ND",
        "NORM",
        "MOSAIC"
],
      "ImagedNucleus": "1H",
      "ImagingFrequency": 123.254572,
      "InPlanePhaseEncodingDirection": "COL",
      "MRAcquisitionType": "2D",
      "MagneticFieldStrength": 3.0,
      "Manufacturer": "SIEMENS",
      "ManufacturerModelName": "Prisma",
      "Modality": "MR",
      "NumberOfAverages": 1.0,
      "NumberOfPhaseEncodingSteps": 70,
      "PercentPhaseFieldOfView": 100.0,
      "PercentSampling": 100.0,
      "PerformedProcedureStepStartTime": "141442.173000",
      "PhotometricInterpretation": "MONOCHROME2",
      "PixelBandwidth": 2165.0,
      "PixelRepresentation": 0,
      "PixelSpacing": [3.0, 3.0],
      "ProtocolName": "BOLD_ep2d_3x3x3_dimension2",
      "RepetitionTime": 2000.0,
      "Rows": 490,
      "SAR": 0.14396932600747,
      "SamplesPerPixel": 1,
      "ScanOptions": "FS",
      "ScanningSequence": "EP",
      "SequenceName": "*epfid2d1_70",
      "SequenceVariant": "SK",
      "SeriesDescription": "BOLD_ep2d_3x3x3_dimension2",
      "SeriesNumber": 5,
      "SeriesTime": "145405.495000",
      "SliceLocation": 74.461822912144,
      "SliceThickness": 3.0,
      "SmallestImagePixelValue": 0,
      "SoftwareVersions": "syngo MR E11",
      "SpacingBetweenSlices": 2.9999999694137,
      "SpecificCharacterSet": "ISO_IR 100",
      "StudyID": "1",
      "StudyTime": "141442.093000",
      "TransmitCoilName": "Body",
      "VariableFlipAngleFlag": "N",
      "WindowCenterWidthExplanation": "Algo1",
      "dBdt": 0.0},
    "slices": {}
  },
  "time": {
    "samples": {
      "AcquisitionNumber": [1, 2, 3, 4, 5, 6, 7, 8, 9, 10, 11, 12, 13, 14, 15, 16, 17, 18, 19, 20, 21, 22, 23, 24, 25, 26, 27, 28, 29, 30, 31, 32, 33, 34, 35, 36, 37, 38, 39, 40, 41, 42, 43, 44, 45, 46, 47, 48, 49, 50, 51, 52, 53, 54, 55, 56, 57, 58, 59, 60, 61, 62, 63, 64, 65, 66, 67, 68, 69, 70, 71, 72, 73, 74, 75, 76, 77, 78, 79, 80, 81, 82, 83, 84, 85, 86, 87, 88, 89, 90, 91, 92, 93, 94, 95, 96, 97, 98, 99, 100, 101, 102, 103, 104, 105, 106, 107, 108, 109, 110, 111, 112, 113, 114, 115, 116, 117, 118, 119, 120, 121, 122, 123, 124, 125, 126, 127, 128, 129, 130, 131, 132, 133, 134, 135, 136, 137, 138, 139, 140, 141, 142, 143, 144, 145, 146, 147, 148, 149, 150, 151, 152, 153, 154, 155, 156, 157, 158, 159, 160, 161, 162, 163, 164, 165, 166, 167, 168, 169, 170, 171, 172, 173, 174, 175, 176, 177, 178, 179, 180, 181, 182, 183, 184, 185, 186, 187, 188, 189, 190, 191, 192, 193, 194, 195, 196, 197, 198, 199, 200, 201, 202, 203, 204, 205, 206, 207, 208, 209, 210, 211, 212, 213, 214, 215, 216, 217, 218, 219, 220, 221, 222, 223, 224, 225, 226, 227, 228, 229, 230, 231, 232, 233, 234, 235, 236, 237, 238, 239, 240, 241, 242, 243, 244, 245, 246, 247, 248, 249, 250, 251, 252, 253, 254, 255, 256, 257, 258, 259, 260, 261, 262, 263, 264, 265, 266, 267, 268, 269, 270, 271, 272, 273, 274, 275, 276, 277, 278, 279, 280, 281, 282, 283, 284, 285, 286, 287, 288, 289, 290, 291, 292, 293, 294, 295, 296, 297, 298, 299, 300, 301, 302, 303, 304, 305, 306, 307, 308, 309, 310, 311, 312, 313, 314, 315, 316, 317, 318, 319, 320, 321, 322, 323, 324, 325, 326, 327, 328, 329, 330, 331, 332, 333, 334, 335, 336, 337, 338, 339, 340, 341, 342, 343, 344, 345, 346, 347, 348, 349, 350, 351, 352, 353, 354, 355, 356, 357, 358, 359, 360, 361, 362, 363, 364, 365, 366, 367, 368, 369, 370, 371, 372, 373, 374, 375, 376, 377, 378, 379, 380, 381, 382, 383, 384, 385, 386, 387, 388, 389, 390, 391, 392, 393, 394, 395, 396, 397, 398, 399, 400, 401, 402, 403, 404, 405, 406, 407, 408, 409, 410, 411, 412, 413, 414, 415, 416, 417, 418, 419, 420, 421, 422, 423, 424, 425, 426, 427, 428, 429, 430, 431, 432, 433, 434, 435, 436, 437],
      "AcquisitionTime": ["145314.105000", "145316.105000", "145318.105000", "145320.105000", "145322.105000", "145324.105000", "145326.105000", "145328.105000", "145330.105000", "145332.105000", "145334.105000", "145336.105000", "145338.105000", "145340.105000", "145342.105000", "145344.105000", "145346.105000", "145348.105000", "145350.105000", "145352.105000", "145354.105000", "145356.105000", "145358.105000", "145400.105000", "145402.105000", "145404.105000", "145406.105000", "145408.105000", "145410.105000", "145412.105000", "145414.105000", "145416.105000", "145418.105000", "145420.105000", "145422.105000", "145424.105000", "145426.105000", "145428.105000", "145430.105000", "145432.105000", "145434.105000", "145436.105000", "145438.105000", "145440.105000", "145442.105000", "145444.105000", "145446.105000", "145448.105000", "145450.105000", "145452.105000", "145454.105000", "145456.105000", "145458.105000", "145500.105000", "145502.105000", "145504.105000", "145506.105000", "145508.105000", "145510.105000", "145512.105000", "145514.105000", "145516.105000", "145518.105000", "145520.105000", "145522.105000", "145524.105000", "145526.105000", "145528.105000", "145530.105000", "145532.105000", "145534.105000", "145536.105000", "145538.105000", "145540.105000", "145542.105000", "145544.105000", "145546.105000", "145548.105000", "145550.105000", "145552.105000", "145554.105000", "145556.105000", "145558.105000", "145600.105000", "145602.105000", "145604.105000", "145606.105000", "145608.105000", "145610.105000", "145612.105000", "145614.105000", "145616.105000", "145618.105000", "145620.105000", "145622.105000", "145624.105000", "145626.105000", "145628.105000", "145630.105000", "145632.105000", "145634.105000", "145636.105000", "145638.105000", "145640.105000", "145642.105000", "145644.105000", "145646.105000", "145648.105000", "145650.105000", "145652.105000", "145654.105000", "145656.105000", "145658.105000", "145700.105000", "145702.105000", "145704.105000", "145706.105000", "145708.105000", "145710.105000", "145712.105000", "145714.105000", "145716.105000", "145718.105000", "145720.105000", "145722.105000", "145724.105000", "145726.105000", "145728.105000", "145730.105000", "145732.105000", "145734.105000", "145736.105000", "145738.105000", "145740.105000", "145742.105000", "145744.105000", "145746.105000", "145748.105000", "145750.105000", "145752.105000", "145754.105000", "145756.105000", "145758.105000", "145800.105000", "145802.105000", "145804.105000", "145806.105000", "145808.105000", "145810.105000", "145812.105000", "145814.105000", "145816.105000", "145818.105000", "145820.105000", "145822.105000", "145824.105000", "145826.105000", "145828.105000", "145830.105000", "145832.105000", "145834.105000", "145836.105000", "145838.105000", "145840.105000", "145842.105000", "145844.105000", "145846.105000", "145848.105000", "145850.105000", "145852.105000", "145854.105000", "145856.105000", "145858.105000", "145900.105000", "145902.105000", "145904.105000", "145906.105000", "145908.105000", "145910.105000", "145912.105000", "145914.105000", "145916.105000", "145918.105000", "145920.105000", "145922.105000", "145924.105000", "145926.105000", "145928.105000", "145930.105000", "145932.105000", "145934.105000", "145936.105000", "145938.105000", "145940.105000", "145942.105000", "145944.105000", "145946.105000", "145948.105000", "145950.105000", "145952.105000", "145954.105000", "145956.105000", "145958.105000", "150000.105000", "150002.105000", "150004.105000", "150006.105000", "150008.105000", "150010.105000", "150012.105000", "150014.105000", "150016.105000", "150018.105000", "150020.105000", "150022.105000", "150024.105000", "150026.105000", "150028.105000", "150030.105000", "150032.105000", "150034.105000", "150036.105000", "150038.105000", "150040.105000", "150042.105000", "150044.105000", "150046.105000", "150048.105000", "150050.105000", "150052.105000", "150054.105000", "150056.105000", "150058.105000", "150100.105000", "150102.105000", "150104.105000", "150106.105000", "150108.105000", "150110.105000", "150112.105000", "150114.105000", "150116.105000", "150118.105000", "150120.105000", "150122.105000", "150124.105000", "150126.105000", "150128.105000", "150130.105000", "150132.105000", "150134.105000", "150136.105000", "150138.105000", "150140.105000", "150142.105000", "150144.105000", "150146.105000", "150148.105000", "150150.105000", "150152.105000", "150154.105000", "150156.105000", "150158.105000", "150200.105000", "150202.105000", "150204.105000", "150206.105000", "150208.105000", "150210.105000", "150212.105000", "150214.105000", "150216.105000", "150218.105000", "150220.105000", "150222.105000", "150224.105000", "150226.105000", "150228.105000", "150230.105000", "150232.105000", "150234.105000", "150236.105000", "150238.105000", "150240.105000", "150242.105000", "150244.105000", "150246.105000", "150248.105000", "150250.105000", "150252.105000", "150254.105000", "150256.105000", "150258.105000", "150300.105000", "150302.105000", "150304.105000", "150306.105000", "150308.105000", "150310.105000", "150312.105000", "150314.105000", "150316.105000", "150318.105000", "150320.105000", "150322.105000", "150324.105000", "150326.105000", "150328.105000", "150330.105000", "150332.105000", "150334.105000", "150336.105000", "150338.105000", "150340.105000", "150342.105000", "150344.105000", "150346.105000", "150348.105000", "150350.105000", "150352.105000", "150354.105000", "150356.105000", "150358.105000", "150400.105000", "150402.105000", "150404.105000", "150406.105000", "150408.105000", "150410.105000", "150412.105000", "150414.105000", "150416.105000", "150418.105000", "150420.105000", "150422.105000", "150424.105000", "150426.105000", "150428.105000", "150430.105000", "150432.105000", "150434.105000", "150436.105000", "150438.105000", "150440.105000", "150442.105000", "150444.105000", "150446.105000", "150448.105000", "150450.105000", "150452.105000", "150454.105000", "150456.105000", "150458.105000", "150500.105000", "150502.105000", "150504.105000", "150506.105000", "150508.105000", "150510.105000", "150512.105000", "150514.105000", "150516.105000", "150518.105000", "150520.105000", "150522.105000", "150524.105000", "150526.105000", "150528.105000", "150530.105000", "150532.105000", "150534.105000", "150536.105000", "150538.105000", "150540.105000", "150542.105000", "150544.105000", "150546.105000", "150548.105000", "150550.105000", "150552.105000", "150554.105000", "150556.105000", "150558.105000", "150600.105000", "150602.105000", "150604.105000", "150606.105000", "150608.105000", "150610.105000", "150612.105000", "150614.105000", "150616.105000", "150618.105000", "150620.105000", "150622.105000", "150624.105000", "150626.105000", "150628.105000", "150630.105000", "150632.105000", "150634.105000", "150636.105000", "150638.105000", "150640.105000", "150642.105000", "150644.105000", "150646.105000", "150648.105000", "150650.105000", "150652.105000", "150654.105000", "150656.105000", "150658.105000", "150700.105000", "150702.105000", "150704.105000", "150706.105000", "150708.105000", "150710.105000", "150712.105000", "150714.105000", "150716.105000", "150718.105000", "150720.105000", "150722.105000", "150724.105000", "150726.105000", "150728.105000", "150730.105000", "150732.105000", "150734.105000", "150736.105000", "150738.105000", "150740.105000", "150742.105000", "150744.105000", "150746.105000"],
      "ContentTime": ["145405.498000", "145405.502000", "145405.505000", "145405.508000", "145405.510000", "145405.513000", "145405.516000", "145405.524000", "145405.527000", "145405.529000", "145405.532000", "145405.538000", "145405.541000", "145405.544000", "145405.546000", "145405.549000", "145405.552000", "145405.555000", "145405.557000", "145405.560000", "145405.563000", "145405.566000", "145405.568000", "145405.571000", "145405.574000", "145405.577000", "145445.493000", "145445.496000", "145445.498000", "145445.501000", "145445.504000", "145445.507000", "145445.510000", "145445.512000", "145445.515000", "145445.518000", "145445.521000", "145445.523000", "145445.526000", "145445.529000", "145445.531000", "145445.534000", "145445.537000", "145445.540000", "145445.543000", "145445.547000", "145525.494000", "145525.497000", "145525.499000", "145525.502000", "145525.507000", "145525.510000", "145525.513000", "145525.515000", "145525.518000", "145525.521000", "145525.524000", "145525.526000", "145525.529000", "145525.532000", "145525.535000", "145525.537000", "145525.540000", "145525.543000", "145525.546000", "145525.549000", "145605.494000", "145605.497000", "145605.499000", "145605.502000", "145605.505000", "145605.508000", "145605.510000", "145605.513000", "145605.516000", "145605.519000", "145605.521000", "145605.524000", "145605.527000", "145605.530000", "145605.532000", "145605.535000", "145605.538000", "145605.541000", "145605.543000", "145605.546000", "145645.493000", "145645.496000", "145645.499000", "145645.501000", "145645.504000", "145645.507000", "145645.510000", "145645.512000", "145645.515000", "145645.518000", "145645.521000", "145645.523000", "145645.526000", "145645.529000", "145645.532000", "145645.535000", "145645.537000", "145645.540000", "145645.543000", "145645.546000", "145725.493000", "145725.496000", "145725.498000", "145725.501000", "145725.504000", "145725.507000", "145725.509000", "145725.512000", "145725.515000", "145725.518000", "145725.521000", "145725.523000", "145725.526000", "145725.540000", "145725.543000", "145725.546000", "145725.548000", "145725.551000", "145725.554000", "145725.556000", "145805.494000", "145805.497000", "145805.500000", "145805.502000", "145805.505000", "145805.508000", "145805.511000", "145805.513000", "145805.516000", "145805.519000", "145805.522000", "145805.524000", "145805.527000", "145805.530000", "145805.533000", "145805.535000", "145805.538000", "145805.541000", "145805.544000", "145805.546000", "145845.494000", "145845.497000", "145845.500000", "145845.502000", "145845.505000", "145845.508000", "145845.511000", "145845.513000", "145845.516000", "145845.519000", "145845.522000", "145845.524000", "145845.527000", "145845.530000", "145845.533000", "145845.535000", "145845.538000", "145845.541000", "145845.544000", "145845.547000", "145925.493000", "145925.496000", "145925.499000", "145925.501000", "145925.504000", "145925.507000", "145925.510000", "145925.513000", "145925.515000", "145925.518000", "145925.521000", "145925.524000", "145925.526000", "145925.529000", "145925.532000", "145925.535000", "145925.537000", "145925.540000", "145925.543000", "145925.546000", "150005.494000", "150005.497000", "150005.499000", "150005.502000", "150005.505000", "150005.508000", "150005.511000", "150005.513000", "150005.516000", "150005.519000", "150005.522000", "150005.524000", "150005.527000", "150005.530000", "150005.533000", "150005.535000", "150005.538000", "150005.541000", "150005.544000", "150005.546000", "150045.494000", "150045.497000", "150045.500000", "150045.502000", "150045.505000", "150045.508000", "150045.511000", "150045.513000", "150045.516000", "150045.519000", "150045.522000", "150045.525000", "150045.527000", "150045.530000", "150045.533000", "150045.536000", "150045.539000", "150045.541000", "150045.544000", "150045.547000", "150125.493000", "150125.496000", "150125.499000", "150125.501000", "150125.504000", "150125.507000", "150125.510000", "150125.512000", "150125.515000", "150125.518000", "150125.521000", "150125.524000", "150125.527000", "150125.529000", "150125.532000", "150125.535000", "150125.538000", "150125.540000", "150125.543000", "150125.546000", "150205.493000", "150205.496000", "150205.498000", "150205.501000", "150205.504000", "150205.507000", "150205.509000", "150205.512000", "150205.515000", "150205.518000", "150205.521000", "150205.523000", "150205.526000", "150205.529000", "150205.532000", "150205.534000", "150205.537000", "150205.540000", "150205.543000", "150205.545000", "150245.494000", "150245.497000", "150245.500000", "150245.502000", "150245.505000", "150245.508000", "150245.511000", "150245.514000", "150245.516000", "150245.519000", "150245.522000", "150245.525000", "150245.527000", "150245.530000", "150245.533000", "150245.536000", "150245.538000", "150245.541000", "150245.544000", "150245.547000", "150325.494000", "150325.497000", "150325.499000", "150325.502000", "150325.505000", "150325.508000", "150325.511000", "150325.513000", "150325.516000", "150325.519000", "150325.522000", "150325.525000", "150325.527000", "150325.530000", "150325.533000", "150325.536000", "150325.538000", "150325.541000", "150325.544000", "150325.547000", "150405.493000", "150405.496000", "150405.498000", "150405.501000", "150405.504000", "150405.507000", "150405.510000", "150405.512000", "150405.515000", "150405.518000", "150405.521000", "150405.523000", "150405.526000", "150405.529000", "150405.532000", "150405.535000", "150405.538000", "150405.540000", "150405.543000", "150405.546000", "150445.494000", "150445.497000", "150445.499000", "150445.502000", "150445.505000", "150445.508000", "150445.511000", "150445.513000", "150445.516000", "150445.519000", "150445.522000", "150445.525000", "150445.527000", "150445.530000", "150445.538000", "150445.541000", "150445.544000", "150445.547000", "150445.550000", "150445.552000", "150525.494000", "150525.497000", "150525.500000", "150525.502000", "150525.505000", "150525.508000", "150525.511000", "150525.513000", "150525.516000", "150525.519000", "150525.522000", "150525.535000", "150525.538000", "150525.541000", "150525.544000", "150525.546000", "150525.549000", "150525.552000", "150525.555000", "150525.557000", "150605.493000", "150605.496000", "150605.499000", "150605.501000", "150605.504000", "150605.507000", "150605.510000", "150605.512000", "150605.515000", "150605.518000", "150605.521000", "150605.523000", "150605.526000", "150605.529000", "150605.532000", "150605.535000", "150605.537000", "150605.540000", "150605.543000", "150605.546000", "150645.493000", "150645.496000", "150645.498000", "150645.501000", "150645.504000", "150645.507000", "150645.510000", "150645.513000", "150645.515000", "150645.518000", "150645.521000", "150645.524000", "150645.527000", "150645.530000", "150645.532000", "150645.535000", "150645.538000", "150645.541000", "150645.543000", "150645.546000", "150725.494000", "150725.497000", "150725.500000", "150725.503000", "150725.505000", "150725.508000", "150725.511000", "150725.514000", "150725.517000", "150725.519000", "150725.522000", "150725.525000", "150725.528000", "150725.531000", "150725.533000", "150725.536000", "150725.539000", "150725.542000", "150725.545000", "150725.547000", "150747.383000", "150747.386000", "150747.389000", "150747.392000", "150747.395000", "150747.397000", "150747.400000", "150747.403000", "150747.406000", "150747.409000", "150747.413000"],
      "DataSetTrailingPadding": [
        "\u0000\u0000\u0000\u0000\u0000\u0000\u0000\u0000\u0000\u0000\u0000\u0000\u0000\u0000\u0000\u0000\u0000\u0000\u0000\u0000\u0000\u0000\u0000\u0000\u0000\u0000\u0000\u0000\u0000\u0000\u0000\u0000\u0000\u0000\u0000\u0000\u0000\u0000\u0000\u0000\u0000\u0000\u0000\u0000\u0000\u0000\u0000\u0000\u0000\u0000\u0000\u0000\u0000\u0000\u0000\u0000\u0000\u0000\u0000\u0000\u0000\u0000\u0000\u0000\u0000\u0000\u0000\u0000\u0000\u0000\u0000\u0000\u0000\u0000\u0000\u0000\u0000\u0000\u0000\u0000\u0000\u0000\u0000\u0000\u0000\u0000\u0000\u0000\u0000\u0000\u0000\u0000\u0000\u0000\u0000\u0000\u0000\u0000\u0000\u0000\u0000\u0000\u0000\u0000\u0000\u0000\u0000\u0000\u0000\u0000\u0000\u0000\u0000\u0000\u0000\u0000\u0000\u0000\u0000\u0000\u0000\u0000\u0000\u0000\u0000\u0000\u0000\u0000\u0000\u0000\u0000\u0000\u0000\u0000\u0000\u0000\u0000\u0000\u0000\u0000\u0000\u0000\u0000\u0000\u0000\u0000\u0000\u0000\u0000\u0000\u0000\u0000\u0000\u0000\u0000\u0000\u0000\u0000\u0000\u0000\u0000\u0000\u0000\u0000\u0000\u0000\u0000\u0000\u0000\u0000\u0000\u0000\u0000\u0000\u0000\u0000\u0000\u0000\u0000\u0000\u0000\u0000\u0000\u0000\u0000\u0000\u0000\u0000\u0000\u0000\u0000\u0000\u0000\u0000\u0000\u0000\u0000\u0000\u0000\u0000\u0000\u0000\u0000\u0000\u0000\u0000\u0000\u0000\u0000\u0000\u0000\u0000\u0000\u0000\u0000\u0000\u0000\u0000\u0000\u0000\u0000\u0000\u0000\u0000\u0000\u0000\u0000\u0000\u0000\u0000\u0000\u0000\u0000\u0000\u0000\u0000\u0000\u0000\u0000\u0000\u0000\u0000\u0000\u0000\u0000\u0000\u0000\u0000\u0000\u0000\u0000\u0000\u0000\u0000\u0000\u0000\u0000\u0000\u0000\u0000\u0000\u0000\u0000\u0000\u0000\u0000\u0000\u0000\u0000\u0000\u0000\u0000\u0000\u0000\u0000\u0000\u0000\u0000\u0000\u0000\u0000\u0000\u0000\u0000",
        "\u0000\u0000\u0000\u0000\u0000\u0000\u0000\u0000\u0000\u0000\u0000\u0000\u0000\u0000\u0000\u0000\u0000\u0000\u0000\u0000\u0000\u0000\u0000\u0000\u0000\u0000\u0000\u0000\u0000\u0000\u0000\u0000\u0000\u0000\u0000\u0000\u0000\u0000\u0000\u0000\u0000\u0000\u0000\u0000\u0000\u0000\u0000\u0000\u0000\u0000\u0000\u0000\u0000\u0000\u0000\u0000\u0000\u0000\u0000\u0000\u0000\u0000\u0000\u0000\u0000\u0000\u0000\u0000\u0000\u0000\u0000\u0000\u0000\u0000\u0000\u0000\u0000\u0000\u0000\u0000\u0000\u0000\u0000\u0000\u0000\u0000\u0000\u0000\u0000\u0000\u0000\u0000\u0000\u0000\u0000\u0000\u0000\u0000\u0000\u0000\u0000\u0000\u0000\u0000\u0000\u0000\u0000\u0000\u0000\u0000\u0000\u0000\u0000\u0000\u0000\u0000\u0000\u0000\u0000\u0000\u0000\u0000\u0000\u0000\u0000\u0000\u0000\u0000\u0000\u0000\u0000\u0000\u0000\u0000\u0000\u0000\u0000\u0000\u0000\u0000\u0000\u0000\u0000\u0000\u0000\u0000\u0000\u0000\u0000\u0000\u0000\u0000\u0000\u0000\u0000\u0000\u0000\u0000\u0000\u0000\u0000\u0000\u0000\u0000\u0000\u0000\u0000\u0000\u0000\u0000\u0000\u0000\u0000\u0000\u0000\u0000\u0000\u0000\u0000\u0000\u0000\u0000\u0000\u0000\u0000\u0000\u0000\u0000\u0000\u0000\u0000\u0000\u0000\u0000\u0000\u0000\u0000\u0000\u0000\u0000\u0000\u0000\u0000\u0000\u0000\u0000\u0000\u0000\u0000\u0000\u0000\u0000\u0000\u0000\u0000\u0000\u0000\u0000\u0000\u0000\u0000\u0000\u0000\u0000\u0000\u0000\u0000\u0000\u0000\u0000\u0000\u0000\u0000\u0000\u0000\u0000\u0000\u0000\u0000\u0000\u0000\u0000\u0000\u0000\u0000\u0000\u0000\u0000\u0000\u0000\u0000\u0000\u0000\u0000\u0000\u0000\u0000\u0000\u0000\u0000\u0000\u0000\u0000\u0000\u0000\u0000\u0000\u0000\u0000\u0000\u0000\u0000\u0000\u0000\u0000\u0000\u0000\u0000\u0000\u0000\u0000\u0000\u0000\u0000\u0000\u0000",
        "\u0000\u0000\u0000\u0000\u0000\u0000\u0000\u0000\u0000\u0000\u0000\u0000\u0000\u0000\u0000\u0000\u0000\u0000\u0000\u0000\u0000\u0000\u0000\u0000\u0000\u0000\u0000\u0000\u0000\u0000\u0000\u0000\u0000\u0000\u0000\u0000\u0000\u0000\u0000\u0000\u0000\u0000\u0000\u0000\u0000\u0000\u0000\u0000\u0000\u0000\u0000\u0000\u0000\u0000\u0000\u0000\u0000\u0000\u0000\u0000\u0000\u0000\u0000\u0000\u0000\u0000\u0000\u0000\u0000\u0000\u0000\u0000\u0000\u0000\u0000\u0000\u0000\u0000\u0000\u0000\u0000\u0000\u0000\u0000\u0000\u0000\u0000\u0000\u0000\u0000\u0000\u0000\u0000\u0000\u0000\u0000\u0000\u0000\u0000\u0000\u0000\u0000\u0000\u0000\u0000\u0000\u0000\u0000\u0000\u0000\u0000\u0000\u0000\u0000\u0000\u0000\u0000\u0000\u0000\u0000\u0000\u0000\u0000\u0000\u0000\u0000\u0000\u0000\u0000\u0000\u0000\u0000\u0000\u0000\u0000\u0000\u0000\u0000\u0000\u0000\u0000\u0000\u0000\u0000\u0000\u0000\u0000\u0000\u0000\u0000\u0000\u0000\u0000\u0000\u0000\u0000\u0000\u0000\u0000\u0000\u0000\u0000\u0000\u0000\u0000\u0000\u0000\u0000\u0000\u0000\u0000\u0000\u0000\u0000\u0000\u0000\u0000\u0000\u0000\u0000\u0000\u0000\u0000\u0000\u0000\u0000\u0000\u0000\u0000\u0000\u0000\u0000\u0000\u0000\u0000\u0000\u0000\u0000\u0000\u0000\u0000\u0000\u0000\u0000\u0000\u0000\u0000\u0000\u0000\u0000\u0000\u0000\u0000\u0000\u0000\u0000\u0000\u0000\u0000\u0000\u0000\u0000\u0000\u0000\u0000\u0000\u0000\u0000\u0000\u0000\u0000\u0000\u0000\u0000\u0000\u0000\u0000\u0000\u0000\u0000\u0000\u0000\u0000\u0000\u0000\u0000\u0000\u0000\u0000\u0000\u0000\u0000\u0000\u0000\u0000\u0000\u0000\u0000\u0000\u0000\u0000\u0000\u0000\u0000\u0000\u0000\u0000\u0000\u0000\u0000\u0000\u0000\u0000\u0000\u0000\u0000\u0000\u0000\u0000\u0000\u0000\u0000\u0000\u0000\u0000\u0000",
        "\u0000\u0000\u0000\u0000\u0000\u0000\u0000\u0000\u0000\u0000\u0000\u0000\u0000\u0000\u0000\u0000\u0000\u0000\u0000\u0000\u0000\u0000\u0000\u0000\u0000\u0000\u0000\u0000\u0000\u0000\u0000\u0000\u0000\u0000\u0000\u0000\u0000\u0000\u0000\u0000\u0000\u0000\u0000\u0000\u0000\u0000\u0000\u0000\u0000\u0000\u0000\u0000\u0000\u0000\u0000\u0000\u0000\u0000\u0000\u0000\u0000\u0000\u0000\u0000\u0000\u0000\u0000\u0000\u0000\u0000\u0000\u0000\u0000\u0000\u0000\u0000\u0000\u0000\u0000\u0000\u0000\u0000\u0000\u0000\u0000\u0000\u0000\u0000\u0000\u0000\u0000\u0000\u0000\u0000\u0000\u0000\u0000\u0000\u0000\u0000\u0000\u0000\u0000\u0000\u0000\u0000\u0000\u0000\u0000\u0000\u0000\u0000\u0000\u0000\u0000\u0000\u0000\u0000\u0000\u0000\u0000\u0000\u0000\u0000\u0000\u0000\u0000\u0000\u0000\u0000\u0000\u0000\u0000\u0000\u0000\u0000\u0000\u0000\u0000\u0000\u0000\u0000\u0000\u0000\u0000\u0000\u0000\u0000\u0000\u0000\u0000\u0000\u0000\u0000\u0000\u0000\u0000\u0000\u0000\u0000\u0000\u0000\u0000\u0000\u0000\u0000\u0000\u0000\u0000\u0000\u0000\u0000\u0000\u0000\u0000\u0000\u0000\u0000\u0000\u0000\u0000\u0000\u0000\u0000\u0000\u0000\u0000\u0000\u0000\u0000\u0000\u0000\u0000\u0000\u0000\u0000\u0000\u0000\u0000\u0000\u0000\u0000\u0000\u0000\u0000\u0000\u0000\u0000\u0000\u0000\u0000\u0000\u0000\u0000\u0000\u0000\u0000\u0000\u0000\u0000\u0000\u0000\u0000\u0000\u0000\u0000\u0000\u0000\u0000\u0000\u0000\u0000\u0000\u0000\u0000\u0000\u0000\u0000\u0000\u0000\u0000\u0000\u0000\u0000\u0000\u0000\u0000\u0000\u0000\u0000\u0000\u0000\u0000\u0000\u0000\u0000\u0000\u0000\u0000\u0000\u0000\u0000\u0000\u0000\u0000\u0000\u0000\u0000\u0000\u0000\u0000\u0000\u0000\u0000\u0000\u0000\u0000\u0000\u0000\u0000\u0000\u0000\u0000\u0000\u0000\u0000",
