{
  "AcquisitionMatrixPE": 70,
  "AcquisitionNumber": 1,
  "AcquisitionTime": "12:07:26.290000",
  "BandwidthPerPixelPhaseEncode": 51.948,
  "BaseResolution": 70,
  "BodyPartExamined": "HEAD",
  "CoilCombinationMethod": "Sum of Squares",
  "ConsistencyInfo": "N4_VE11C_LATEST_20160120",
  "ConversionSoftware": "dcm2niix",
  "ConversionSoftwareVersion": "v1.0.20220720",
  "DerivedVendorReportedEchoSpacing": 0.000550001,
  "DeviceSerialNumber": "66061",
  "DwellTime": 3.3e-06,
  "EchoTime": 0.022,
  "EchoTrainLength": 35,
  "EffectiveEchoSpacing": 0.000275,
  "FlipAngle": 90,
  "HeudiconvVersion": "1.1.1",
  "ImageOrientationPatientDICOM": [0.999221, 0.00846282, 0.0385478, -0.00122078, 0.982899, -0.184142],
  "ImageOrientationText": "Tra>Cor(-10.6)>Sag(2.3)",
  "ImageType": [
    "ORIGINAL",
    "PRIMARY",
    "M",
    "ND",
    "NORM",
    "MOSAIC"
],
  "ImagingFrequency": 123.254,
  "InPlanePhaseEncodingDirectionDICOM": "COL",
  "InstitutionAddress": "Street StreetNo,City/1c4204/,District,KR,ZIP",
  "InstitutionName": "SKKU",
  "InstitutionalDepartmentName": "Department",
  "MRAcquisitionType": "2D",
  "MagneticFieldStrength": 3,
  "Manufacturer": "Siemens",
  "ManufacturersModelName": "Prisma",
  "MatrixCoilMode": "GRAPPA",
  "Modality": "MR",
  "NonlinearGradientCorrection": false,
  "ParallelReductionFactorInPlane": 2,
  "PartialFourier": 1,
  "PatientPosition": "HFS",
  "PercentPhaseFOV": 100,
  "PercentSampling": 100,
  "PhaseEncodingDirection": "j-",
  "PhaseEncodingSteps": 70,
  "PhaseResolution": 1,
  "PixelBandwidth": 2165,
  "ProcedureStepDescription": "Head^PI:Others",
  "ProtocolName": "BOLD_ep2d_3x3x3_response1",
  "PulseSequenceDetails": "%SiemensSeq%\\ep2d_pace",
  "ReceiveCoilActiveElements": "HC1-7",
  "ReceiveCoilName": "HeadNeck_64",
  "ReconMatrixPE": 70,
  "RefLinesPE": 24,
  "RepetitionTime": 2,
  "SAR": 0.127102,
  "ScanOptions": "FS",
  "ScanningSequence": "EP",
  "SequenceName": "*epfid2d1_70",
  "SequenceVariant": "SK",
  "SeriesDescription": "BOLD_ep2d_3x3x3_response1",
  "SeriesNumber": 9,
  "ShimSetting": [5061, 3684, 4444, 433, 14, -113, 137, 33],
  "SliceThickness": 3,
  "SliceTiming": [0.99, 0, 1.0375, 0.0475, 1.085, 0.095, 1.1325, 0.1425, 1.18, 0.19, 1.225, 0.2375, 1.2725, 0.2825, 1.32, 0.33, 1.3675, 0.3775, 1.415, 0.425, 1.4625, 0.4725, 1.51, 0.52, 1.555, 0.5675, 1.6025, 0.6125, 1.65, 0.66, 1.6975, 0.7075, 1.745, 0.755, 1.7925, 0.8025, 1.84, 0.85, 1.885, 0.895, 1.9325, 0.9425],
  "SoftwareVersions": "syngo MR E11",
  "SpacingBetweenSlices": 3,
  "StationName": "AWP66061",
  "TaskName": "response",
  "TotalReadoutTime": 0.018975,
  "TxRefAmp": 239.339,
  "dcmmeta_affine": [
    [-2.9976627826690674, -0.0036623512860387564, 0.1183408871293068, 107.98653411865234],
    [-0.02538846619427204, 2.9486968517303467, -0.5518540740013123, -90.4579086303711],
    [0.11564343422651291, 0.5524256229400635, 2.9464304447174072, -62.072086334228516],
    [0.0, 0.0, 0.0, 1.0]
],
  "dcmmeta_reorient_transform": [
    [0.0, -1.0, 0.0, 69.0],
    [1.0, 0.0, 0.0, 0.0],
    [0.0, 0.0, -1.0, 41.0],
    [0.0, 0.0, 0.0, 1.0]
],
  "dcmmeta_shape": [70, 70, 42, 341],
  "dcmmeta_slice_dim": 2,
  "dcmmeta_version": 0.6,
  "global": {
    "const": {
      "AcquisitionMatrix": [70, 0, 0, 70],
      "AngioFlag": "N",
      "BitsAllocated": 16,
      "BitsStored": 12,
      "BodyPartExamined": "HEAD",
      "Columns": 490,
      "EchoNumbers": 1,
      "EchoTime": 22.0,
      "EchoTrainLength": 35,
      "FlipAngle": 90.0,
      "HighBit": 11,
      "ImageOrientationPatient": [0.99922091997813, 0.00846282223371, 0.03854781080547, -0.0012207837362, 0.98289891626941, -0.1841418748778],
      "ImagePositionPatient": [-741.32589700903, -714.93404182415, 188.57319104822],
      "ImageType": [
        "ORIGINAL",
        "PRIMARY",
        "M",
        "ND",
        "NORM",
        "MOSAIC"
],
      "ImagedNucleus": "1H",
      "ImagingFrequency": 123.25398,
      "InPlanePhaseEncodingDirection": "COL",
      "MRAcquisitionType": "2D",
      "MagneticFieldStrength": 3.0,
      "Manufacturer": "SIEMENS",
      "ManufacturerModelName": "Prisma",
      "Modality": "MR",
      "NumberOfAverages": 1.0,
      "NumberOfPhaseEncodingSteps": 70,
      "PercentPhaseFieldOfView": 100.0,
      "PercentSampling": 100.0,
      "PerformedProcedureStepStartTime": "113341.629000",
      "PhotometricInterpretation": "MONOCHROME2",
      "PixelBandwidth": 2165.0,
      "PixelRepresentation": 0,
      "PixelSpacing": [3.0, 3.0],
      "ProtocolName": "BOLD_ep2d_3x3x3_response1",
      "RepetitionTime": 2000.0,
      "Rows": 490,
      "SAR": 0.12710203232873,
      "SamplesPerPixel": 1,
      "ScanOptions": "FS",
      "ScanningSequence": "EP",
      "SequenceName": "*epfid2d1_70",
      "SequenceVariant": "SK",
      "SeriesDescription": "BOLD_ep2d_3x3x3_response1",
      "SeriesNumber": 9,
      "SeriesTime": "120808.047000",
      "SliceLocation": 82.935900366685,
      "SliceThickness": 3.0,
      "SmallestImagePixelValue": 0,
      "SoftwareVersions": "syngo MR E11",
      "SpacingBetweenSlices": 3.0000000084101,
      "SpecificCharacterSet": "ISO_IR 100",
      "StudyID": "1",
      "StudyTime": "113341.565000",
      "TransmitCoilName": "Body",
      "VariableFlipAngleFlag": "N",
      "WindowCenterWidthExplanation": "Algo1",
      "dBdt": 0.0},
    "slices": {}
  },
  "time": {
    "samples": {
      "AcquisitionNumber": [1, 2, 3, 4, 5, 6, 7, 8, 9, 10, 11, 12, 13, 14, 15, 16, 17, 18, 19, 20, 21, 22, 23, 24, 25, 26, 27, 28, 29, 30, 31, 32, 33, 34, 35, 36, 37, 38, 39, 40, 41, 42, 43, 44, 45, 46, 47, 48, 49, 50, 51, 52, 53, 54, 55, 56, 57, 58, 59, 60, 61, 62, 63, 64, 65, 66, 67, 68, 69, 70, 71, 72, 73, 74, 75, 76, 77, 78, 79, 80, 81, 82, 83, 84, 85, 86, 87, 88, 89, 90, 91, 92, 93, 94, 95, 96, 97, 98, 99, 100, 101, 102, 103, 104, 105, 106, 107, 108, 109, 110, 111, 112, 113, 114, 115, 116, 117, 118, 119, 120, 121, 122, 123, 124, 125, 126, 127, 128, 129, 130, 131, 132, 133, 134, 135, 136, 137, 138, 139, 140, 141, 142, 143, 144, 145, 146, 147, 148, 149, 150, 151, 152, 153, 154, 155, 156, 157, 158, 159, 160, 161, 162, 163, 164, 165, 166, 167, 168, 169, 170, 171, 172, 173, 174, 175, 176, 177, 178, 179, 180, 181, 182, 183, 184, 185, 186, 187, 188, 189, 190, 191, 192, 193, 194, 195, 196, 197, 198, 199, 200, 201, 202, 203, 204, 205, 206, 207, 208, 209, 210, 211, 212, 213, 214, 215, 216, 217, 218, 219, 220, 221, 222, 223, 224, 225, 226, 227, 228, 229, 230, 231, 232, 233, 234, 235, 236, 237, 238, 239, 240, 241, 242, 243, 244, 245, 246, 247, 248, 249, 250, 251, 252, 253, 254, 255, 256, 257, 258, 259, 260, 261, 262, 263, 264, 265, 266, 267, 268, 269, 270, 271, 272, 273, 274, 275, 276, 277, 278, 279, 280, 281, 282, 283, 284, 285, 286, 287, 288, 289, 290, 291, 292, 293, 294, 295, 296, 297, 298, 299, 300, 301, 302, 303, 304, 305, 306, 307, 308, 309, 310, 311, 312, 313, 314, 315, 316, 317, 318, 319, 320, 321, 322, 323, 324, 325, 326, 327, 328, 329, 330, 331, 332, 333, 334, 335, 336, 337, 338, 339, 340, 341],
      "AcquisitionTime": ["120726.290000", "120728.290000", "120730.290000", "120732.290000", "120734.290000", "120736.290000", "120738.290000", "120740.290000", "120742.290000", "120744.290000", "120746.290000", "120748.290000", "120750.290000", "120752.290000", "120754.290000", "120756.290000", "120758.290000", "120800.290000", "120802.290000", "120804.290000", "120806.290000", "120808.290000", "120810.290000", "120812.290000", "120814.290000", "120816.290000", "120818.290000", "120820.290000", "120822.290000", "120824.290000", "120826.290000", "120828.290000", "120830.290000", "120832.290000", "120834.290000", "120836.290000", "120838.290000", "120840.290000", "120842.290000", "120844.290000", "120846.290000", "120848.290000", "120850.290000", "120852.290000", "120854.290000", "120856.290000", "120858.290000", "120900.290000", "120902.290000", "120904.290000", "120906.290000", "120908.290000", "120910.290000", "120912.290000", "120914.290000", "120916.290000", "120918.290000", "120920.290000", "120922.290000", "120924.290000", "120926.290000", "120928.290000", "120930.290000", "120932.290000", "120934.290000", "120936.290000", "120938.290000", "120940.290000", "120942.290000", "120944.290000", "120946.290000", "120948.290000", "120950.290000", "120952.290000", "120954.290000", "120956.290000", "120958.290000", "121000.290000", "121002.290000", "121004.290000", "121006.290000", "121008.290000", "121010.290000", "121012.290000", "121014.290000", "121016.290000", "121018.290000", "121020.290000", "121022.290000", "121024.290000", "121026.290000", "121028.290000", "121030.290000", "121032.290000", "121034.290000", "121036.290000", "121038.290000", "121040.290000", "121042.290000", "121044.290000", "121046.290000", "121048.290000", "121050.290000", "121052.290000", "121054.290000", "121056.290000", "121058.290000", "121100.290000", "121102.290000", "121104.290000", "121106.290000", "121108.290000", "121110.290000", "121112.290000", "121114.290000", "121116.290000", "121118.290000", "121120.290000", "121122.290000", "121124.290000", "121126.290000", "121128.290000", "121130.290000", "121132.290000", "121134.290000", "121136.290000", "121138.290000", "121140.290000", "121142.290000", "121144.290000", "121146.290000", "121148.290000", "121150.290000", "121152.290000", "121154.290000", "121156.290000", "121158.290000", "121200.290000", "121202.290000", "121204.290000", "121206.290000", "121208.290000", "121210.290000", "121212.290000", "121214.290000", "121216.290000", "121218.290000", "121220.290000", "121222.290000", "121224.290000", "121226.290000", "121228.290000", "121230.290000", "121232.290000", "121234.290000", "121236.290000", "121238.290000", "121240.290000", "121242.290000", "121244.290000", "121246.290000", "121248.290000", "121250.290000", "121252.290000", "121254.290000", "121256.290000", "121258.290000", "121300.290000", "121302.290000", "121304.290000", "121306.290000", "121308.290000", "121310.290000", "121312.290000", "121314.290000", "121316.290000", "121318.290000", "121320.290000", "121322.290000", "121324.290000", "121326.290000", "121328.290000", "121330.290000", "121332.290000", "121334.290000", "121336.290000", "121338.290000", "121340.290000", "121342.290000", "121344.290000", "121346.290000", "121348.290000", "121350.290000", "121352.290000", "121354.290000", "121356.290000", "121358.290000", "121400.290000", "121402.290000", "121404.290000", "121406.290000", "121408.290000", "121410.290000", "121412.290000", "121414.290000", "121416.290000", "121418.290000", "121420.290000", "121422.290000", "121424.290000", "121426.290000", "121428.290000", "121430.290000", "121432.290000", "121434.290000", "121436.290000", "121438.290000", "121440.290000", "121442.290000", "121444.290000", "121446.290000", "121448.290000", "121450.290000", "121452.290000", "121454.290000", "121456.290000", "121458.290000", "121500.290000", "121502.290000", "121504.290000", "121506.290000", "121508.290000", "121510.290000", "121512.290000", "121514.290000", "121516.290000", "121518.290000", "121520.290000", "121522.290000", "121524.290000", "121526.290000", "121528.290000", "121530.290000", "121532.290000", "121534.290000", "121536.290000", "121538.290000", "121540.290000", "121542.290000", "121544.290000", "121546.290000", "121548.290000", "121550.290000", "121552.290000", "121554.290000", "121556.290000", "121558.290000", "121600.290000", "121602.290000", "121604.290000", "121606.290000", "121608.290000", "121610.290000", "121612.290000", "121614.290000", "121616.290000", "121618.290000", "121620.290000", "121622.290000", "121624.290000", "121626.290000", "121628.290000", "121630.290000", "121632.290000", "121634.290000", "121636.290000", "121638.290000", "121640.290000", "121642.290000", "121644.290000", "121646.290000", "121648.290000", "121650.290000", "121652.290000", "121654.290000", "121656.290000", "121658.290000", "121700.290000", "121702.290000", "121704.290000", "121706.290000", "121708.290000", "121710.290000", "121712.290000", "121714.290000", "121716.290000", "121718.290000", "121720.290000", "121722.290000", "121724.290000", "121726.290000", "121728.290000", "121730.290000", "121732.290000", "121734.290000", "121736.290000", "121738.290000", "121740.290000", "121742.290000", "121744.290000", "121746.290000", "121748.290000", "121750.290000", "121752.290000", "121754.290000", "121756.290000", "121758.290000", "121800.290000", "121802.290000", "121804.290000", "121806.290000", "121808.290000", "121810.290000", "121812.290000", "121814.290000", "121816.290000", "121818.290000", "121820.290000", "121822.290000", "121824.290000", "121826.290000", "121828.290000", "121830.290000", "121832.290000", "121834.290000", "121836.290000", "121838.290000", "121840.290000", "121842.290000", "121844.290000", "121846.290000"],
      "ContentTime": ["120808.050000", "120808.054000", "120808.057000", "120808.059000", "120808.062000", "120808.065000", "120808.067000", "120808.070000", "120808.072000", "120808.075000", "120808.078000", "120808.080000", "120808.090000", "120808.092000", "120808.095000", "120808.098000", "120808.100000", "120808.119000", "120808.124000", "120808.126000", "120808.129000", "120848.046000", "120848.049000", "120848.051000", "120848.054000", "120848.057000", "120848.060000", "120848.062000", "120848.065000", "120848.068000", "120848.070000", "120848.073000", "120848.076000", "120848.078000", "120848.081000", "120848.084000", "120848.086000", "120848.089000", "120848.092000", "120848.094000", "120848.097000", "120928.045000", "120928.048000", "120928.053000", "120928.056000", "120928.058000", "120928.061000", "120928.064000", "120928.066000", "120928.069000", "120928.072000", "120928.074000", "120928.077000", "120928.080000", "120928.082000", "120928.085000", "120928.087000", "120928.090000", "120928.093000", "120928.095000", "120928.098000", "121008.046000", "121008.052000", "121008.055000", "121008.063000", "121008.066000", "121008.069000", "121008.079000", "121008.086000", "121008.097000", "121008.105000", "121008.108000", "121008.111000", "121008.121000", "121008.124000", "121008.127000", "121008.129000", "121008.132000", "121008.135000", "121008.137000", "121008.140000", "121048.046000", "121048.048000", "121048.051000", "121048.054000", "121048.057000", "121048.059000", "121048.062000", "121048.065000", "121048.067000", "121048.070000", "121048.073000", "121048.075000", "121048.078000", "121048.081000", "121048.083000", "121048.086000", "121048.089000", "121048.091000", "121048.094000", "121048.097000", "121128.046000", "121128.048000", "121128.051000", "121128.054000", "121128.057000", "121128.059000", "121128.062000", "121128.064000", "121128.067000", "121128.070000", "121128.073000", "121128.075000", "121128.078000", "121128.081000", "121128.083000", "121128.086000", "121128.089000", "121128.091000", "121128.094000", "121128.097000", "121208.046000", "121208.048000", "121208.051000", "121208.054000", "121208.057000", "121208.059000", "121208.062000", "121208.065000", "121208.067000", "121208.070000", "121208.073000", "121208.075000", "121208.078000", "121208.081000", "121208.083000", "121208.086000", "121208.089000", "121208.092000", "121208.094000", "121208.097000", "121248.046000", "121248.048000", "121248.051000", "121248.054000", "121248.057000", "121248.059000", "121248.062000", "121248.065000", "121248.067000", "121248.070000", "121248.073000", "121248.075000", "121248.078000", "121248.081000", "121248.083000", "121248.086000", "121248.089000", "121248.092000", "121248.094000", "121248.097000", "121328.046000", "121328.048000", "121328.051000", "121328.054000", "121328.057000", "121328.059000", "121328.062000", "121328.064000", "121328.067000", "121328.070000", "121328.073000", "121328.075000", "121328.078000", "121328.081000", "121328.083000", "121328.086000", "121328.089000", "121328.091000", "121328.094000", "121328.097000", "121408.046000", "121408.049000", "121408.051000", "121408.054000", "121408.057000", "121408.059000", "121408.062000", "121408.065000", "121408.068000", "121408.070000", "121408.073000", "121408.076000", "121408.078000", "121408.081000", "121408.084000", "121408.086000", "121408.089000", "121408.092000", "121408.094000", "121408.097000", "121448.046000", "121448.048000", "121448.051000", "121448.054000", "121448.057000", "121448.059000", "121448.062000", "121448.065000", "121448.067000", "121448.070000", "121448.073000", "121448.075000", "121448.078000", "121448.081000", "121448.083000", "121448.086000", "121448.097000", "121448.100000", "121448.103000", "121448.105000", "121528.046000", "121528.048000", "121528.051000", "121528.054000", "121528.057000", "121528.059000", "121528.062000", "121528.065000", "121528.067000", "121528.070000", "121528.073000", "121528.075000", "121528.078000", "121528.081000", "121528.083000", "121528.086000", "121528.089000", "121528.092000", "121528.094000", "121528.097000", "121608.046000", "121608.048000", "121608.051000", "121608.054000", "121608.056000", "121608.059000", "121608.062000", "121608.065000", "121608.067000", "121608.070000", "121608.073000", "121608.075000", "121608.078000", "121608.081000", "121608.096000", "121608.099000", "121608.102000", "121608.104000", "121608.107000", "121608.110000", "121648.046000", "121648.049000", "121648.051000", "121648.054000", "121648.057000", "121648.059000", "121648.062000", "121648.070000", "121648.073000", "121648.075000", "121648.078000", "121648.081000", "121648.084000", "121648.086000", "121648.089000", "121648.092000", "121648.094000", "121648.097000", "121648.100000", "121648.102000", "121728.046000", "121728.048000", "121728.051000", "121728.054000", "121728.057000", "121728.059000", "121728.062000", "121728.065000", "121728.067000", "121728.070000", "121728.073000", "121728.076000", "121728.079000", "121728.082000", "121728.084000", "121728.087000", "121728.090000", "121728.092000", "121728.095000", "121728.098000", "121808.046000", "121808.048000", "121808.051000", "121808.054000", "121808.057000", "121808.059000", "121808.062000", "121808.065000", "121808.067000", "121808.070000", "121808.073000", "121808.075000", "121808.078000", "121808.081000", "121808.084000", "121808.086000", "121808.089000", "121808.092000", "121808.094000", "121808.097000", "121847.836000", "121847.840000", "121847.842000", "121847.845000", "121847.848000", "121847.851000", "121847.853000", "121847.856000", "121847.859000", "121847.861000", "121847.864000", "121847.867000", "121847.870000", "121847.872000", "121847.875000", "121847.877000", "121847.880000", "121847.883000", "121847.886000", "121847.888000"],
      "DataSetTrailingPadding": [
        "\u0000\u0000\u0000\u0000\u0000\u0000\u0000\u0000\u0000\u0000\u0000\u0000\u0000\u0000\u0000\u0000\u0000\u0000\u0000\u0000\u0000\u0000\u0000\u0000\u0000\u0000\u0000\u0000\u0000\u0000\u0000\u0000\u0000\u0000\u0000\u0000\u0000\u0000\u0000\u0000\u0000\u0000\u0000\u0000\u0000\u0000\u0000\u0000\u0000\u0000\u0000\u0000\u0000\u0000\u0000\u0000\u0000\u0000\u0000\u0000\u0000\u0000\u0000\u0000\u0000\u0000\u0000\u0000\u0000\u0000\u0000\u0000\u0000\u0000\u0000\u0000\u0000\u0000\u0000\u0000\u0000\u0000\u0000\u0000",
        "\u0000\u0000\u0000\u0000\u0000\u0000\u0000\u0000\u0000\u0000\u0000\u0000\u0000\u0000\u0000\u0000\u0000\u0000\u0000\u0000\u0000\u0000\u0000\u0000\u0000\u0000\u0000\u0000\u0000\u0000\u0000\u0000\u0000\u0000\u0000\u0000\u0000\u0000\u0000\u0000\u0000\u0000\u0000\u0000\u0000\u0000\u0000\u0000\u0000\u0000\u0000\u0000\u0000\u0000\u0000\u0000\u0000\u0000\u0000\u0000\u0000\u0000\u0000\u0000\u0000\u0000\u0000\u0000\u0000\u0000\u0000\u0000\u0000\u0000\u0000\u0000\u0000\u0000\u0000\u0000\u0000\u0000\u0000\u0000",
        "\u0000\u0000\u0000\u0000\u0000\u0000\u0000\u0000\u0000\u0000\u0000\u0000\u0000\u0000\u0000\u0000\u0000\u0000\u0000\u0000\u0000\u0000\u0000\u0000\u0000\u0000\u0000\u0000\u0000\u0000\u0000\u0000\u0000\u0000\u0000\u0000\u0000\u0000\u0000\u0000\u0000\u0000\u0000\u0000\u0000\u0000\u0000\u0000\u0000\u0000\u0000\u0000\u0000\u0000\u0000\u0000\u0000\u0000\u0000\u0000\u0000\u0000\u0000\u0000\u0000\u0000\u0000\u0000\u0000\u0000\u0000\u0000\u0000\u0000\u0000\u0000\u0000\u0000\u0000\u0000\u0000\u0000\u0000\u0000",
        "\u0000\u0000\u0000\u0000\u0000\u0000\u0000\u0000\u0000\u0000\u0000\u0000\u0000\u0000\u0000\u0000\u0000\u0000\u0000\u0000\u0000\u0000\u0000\u0000\u0000\u0000\u0000\u0000\u0000\u0000\u0000\u0000\u0000\u0000\u0000\u0000\u0000\u0000\u0000\u0000\u0000\u0000\u0000\u0000\u0000\u0000\u0000\u0000\u0000\u0000\u0000\u0000\u0000\u0000\u0000\u0000\u0000\u0000\u0000\u0000\u0000\u0000\u0000\u0000\u0000\u0000\u0000\u0000\u0000\u0000\u0000\u0000\u0000\u0000\u0000\u0000\u0000\u0000\u0000\u0000\u0000\u0000\u0000\u0000",
        "\u0000\u0000\u0000\u0000\u0000\u0000\u0000\u0000\u0000\u0000\u0000\u0000\u0000\u0000\u0000\u0000\u0000\u0000\u0000\u0000\u0000\u0000\u0000\u0000\u0000\u0000\u0000\u0000\u0000\u0000\u0000\u0000\u0000\u0000\u0000\u0000\u0000\u0000\u0000\u0000\u0000\u0000\u0000\u0000\u0000\u0000\u0000\u0000\u0000\u0000\u0000\u0000\u0000\u0000\u0000\u0000\u0000\u0000\u0000\u0000\u0000\u0000\u0000\u0000\u0000\u0000\u0000\u0000\u0000\u0000\u0000\u0000\u0000\u0000\u0000\u0000\u0000\u0000\u0000\u0000\u0000\u0000",
        "\u0000\u0000\u0000\u0000\u0000\u0000\u0000\u0000\u0000\u0000\u0000\u0000\u0000\u0000\u0000\u0000\u0000\u0000\u0000\u0000\u0000\u0000\u0000\u0000\u0000\u0000\u0000\u0000\u0000\u0000\u0000\u0000\u0000\u0000\u0000\u0000\u0000\u0000\u0000\u0000\u0000\u0000\u0000\u0000\u0000\u0000\u0000\u0000\u0000\u0000\u0000\u0000\u0000\u0000\u0000\u0000\u0000\u0000\u0000\u0000\u0000\u0000\u0000\u0000\u0000\u0000\u0000\u0000\u0000\u0000\u0000\u0000\u0000\u0000\u0000\u0000\u0000\u0000\u0000\u0000\u0000\u0000",
        "\u0000\u0000\u0000\u0000\u0000\u0000\u0000\u0000\u0000\u0000\u0000\u0000\u0000\u0000\u0000\u0000\u0000\u0000\u0000\u0000\u0000\u0000\u0000\u0000\u0000\u0000\u0000\u0000\u0000\u0000\u0000\u0000\u0000\u0000\u0000\u0000\u0000\u0000\u0000\u0000\u0000\u0000\u0000\u0000\u0000\u0000\u0000\u0000\u0000\u0000\u0000\u0000\u0000\u0000\u0000\u0000\u0000\u0000\u0000\u0000\u0000\u0000\u0000\u0000\u0000\u0000\u0000\u0000\u0000\u0000\u0000\u0000\u0000\u0000\u0000\u0000\u0000\u0000\u0000\u0000\u0000\u0000",
        "\u0000\u0000\u0000\u0000\u0000\u0000\u0000\u0000\u0000\u0000\u0000\u0000\u0000\u0000\u0000\u0000\u0000\u0000\u0000\u0000\u0000\u0000\u0000\u0000\u0000\u0000\u0000\u0000\u0000\u0000\u0000\u0000\u0000\u0000\u0000\u0000\u0000\u0000\u0000\u0000\u0000\u0000\u0000\u0000\u0000\u0000\u0000\u0000\u0000\u0000\u0000\u0000\u0000\u0000\u0000\u0000\u0000\u0000\u0000\u0000\u0000\u0000\u0000\u0000\u0000\u0000\u0000\u0000\u0000\u0000\u0000\u0000\u0000\u0000\u0000\u0000\u0000\u0000\u0000\u0000\u0000\u0000",
        "\u0000\u0000\u0000\u0000\u0000\u0000\u0000\u0000\u0000\u0000\u0000\u0000\u0000\u0000\u0000\u0000\u0000\u0000\u0000\u0000\u0000\u0000\u0000\u0000\u0000\u0000\u0000\u0000\u0000\u0000\u0000\u0000\u0000\u0000\u0000\u0000\u0000\u0000\u0000\u0000\u0000\u0000\u0000\u0000\u0000\u0000\u0000\u0000\u0000\u0000\u0000\u0000\u0000\u0000\u0000\u0000\u0000\u0000\u0000\u0000\u0000\u0000\u0000\u0000\u0000\u0000\u0000\u0000\u0000\u0000\u0000\u0000\u0000\u0000\u0000\u0000\u0000\u0000\u0000\u0000\u0000\u0000",
        "\u0000\u0000\u0000\u0000\u0000\u0000\u0000\u0000\u0000\u0000\u0000\u0000\u0000\u0000\u0000\u0000\u0000\u0000\u0000\u0000\u0000\u0000\u0000\u0000\u0000\u0000\u0000\u0000\u0000\u0000\u0000\u0000\u0000\u0000\u0000\u0000\u0000\u0000\u0000\u0000\u0000\u0000\u0000\u0000\u0000\u0000\u0000\u0000\u0000\u0000\u0000\u0000\u0000\u0000\u0000\u0000\u0000\u0000\u0000\u0000\u0000\u0000\u0000\u0000\u0000\u0000\u0000\u0000\u0000\u0000\u0000\u0000\u0000\u0000\u0000\u0000\u0000\u0000\u0000\u0000\u0000\u0000",
        "\u0000\u0000\u0000\u0000\u0000\u0000\u0000\u0000\u0000\u0000\u0000\u0000\u0000\u0000\u0000\u0000\u0000\u0000\u0000\u0000\u0000\u0000\u0000\u0000\u0000\u0000\u0000\u0000\u0000\u0000\u0000\u0000\u0000\u0000\u0000\u0000\u0000\u0000\u0000\u0000\u0000\u0000\u0000\u0000\u0000\u0000\u0000\u0000\u0000\u0000\u0000\u0000\u0000\u0000\u0000\u0000\u0000\u0000\u0000\u0000\u0000\u0000\u0000\u0000\u0000\u0000\u0000\u0000\u0000\u0000\u0000\u0000\u0000\u0000\u0000\u0000\u0000\u0000\u0000\u0000\u0000\u0000",
        "\u0000\u0000\u0000\u0000\u0000\u0000\u0000\u0000\u0000\u0000\u0000\u0000\u0000\u0000\u0000\u0000\u0000\u0000\u0000\u0000\u0000\u0000\u0000\u0000\u0000\u0000\u0000\u0000\u0000\u0000\u0000\u0000\u0000\u0000\u0000\u0000\u0000\u0000\u0000\u0000\u0000\u0000\u0000\u0000\u0000\u0000\u0000\u0000\u0000\u0000\u0000\u0000\u0000\u0000\u0000\u0000\u0000\u0000\u0000\u0000\u0000\u0000\u0000\u0000\u0000\u0000\u0000\u0000\u0000\u0000\u0000\u0000\u0000\u0000\u0000\u0000\u0000\u0000\u0000\u0000\u0000\u0000",
        "\u0000\u0000\u0000\u0000\u0000\u0000\u0000\u0000\u0000\u0000\u0000\u0000\u0000\u0000\u0000\u0000\u0000\u0000\u0000\u0000\u0000\u0000\u0000\u0000\u0000\u0000\u0000\u0000\u0000\u0000\u0000\u0000\u0000\u0000\u0000\u0000\u0000\u0000\u0000\u0000\u0000\u0000\u0000\u0000\u0000\u0000\u0000\u0000\u0000\u0000\u0000\u0000\u0000\u0000\u0000\u0000\u0000\u0000\u0000\u0000\u0000\u0000\u0000\u0000\u0000\u0000\u0000\u0000\u0000\u0000\u0000\u0000\u0000\u0000\u0000\u0000\u0000\u0000\u0000\u0000\u0000\u0000",
        "\u0000\u0000\u0000\u0000\u0000\u0000\u0000\u0000\u0000\u0000\u0000\u0000\u0000\u0000\u0000\u0000\u0000\u0000\u0000\u0000\u0000\u0000\u0000\u0000\u0000\u0000\u0000\u0000\u0000\u0000\u0000\u0000\u0000\u0000\u0000\u0000\u0000\u0000\u0000\u0000\u0000\u0000\u0000\u0000\u0000\u0000\u0000\u0000\u0000\u0000\u0000\u0000\u0000\u0000\u0000\u0000\u0000\u0000\u0000\u0000\u0000\u0000\u0000\u0000\u0000\u0000\u0000\u0000\u0000\u0000\u0000\u0000\u0000\u0000\u0000\u0000\u0000\u0000\u0000\u0000\u0000\u0000",
        "\u0000\u0000\u0000\u0000\u0000\u0000\u0000\u0000\u0000\u0000\u0000\u0000\u0000\u0000\u0000\u0000\u0000\u0000\u0000\u0000\u0000\u0000\u0000\u0000\u0000\u0000\u0000\u0000\u0000\u0000\u0000\u0000\u0000\u0000\u0000\u0000\u0000\u0000\u0000\u0000\u0000\u0000\u0000\u0000\u0000\u0000\u0000\u0000\u0000\u0000\u0000\u0000\u0000\u0000\u0000\u0000\u0000\u0000\u0000\u0000\u0000\u0000\u0000\u0000\u0000\u0000\u0000\u0000\u0000\u0000\u0000\u0000\u0000\u0000\u0000\u0000\u0000\u0000\u0000\u0000\u0000\u0000",
        "\u0000\u0000\u0000\u0000\u0000\u0000\u0000\u0000\u0000\u0000\u0000\u0000\u0000\u0000\u0000\u0000\u0000\u0000\u0000\u0000\u0000\u0000\u0000\u0000\u0000\u0000\u0000\u0000\u0000\u0000\u0000\u0000\u0000\u0000\u0000\u0000\u0000\u0000\u0000\u0000\u0000\u0000\u0000\u0000\u0000\u0000\u0000\u0000\u0000\u0000\u0000\u0000\u0000\u0000\u0000\u0000\u0000\u0000\u0000\u0000\u0000\u0000\u0000\u0000\u0000\u0000\u0000\u0000\u0000\u0000\u0000\u0000\u0000\u0000\u0000\u0000\u0000\u0000\u0000\u0000\u0000\u0000",
        "\u0000\u0000\u0000\u0000\u0000\u0000\u0000\u0000\u0000\u0000\u0000\u0000\u0000\u0000\u0000\u0000\u0000\u0000\u0000\u0000\u0000\u0000\u0000\u0000\u0000\u0000\u0000\u0000\u0000\u0000\u0000\u0000\u0000\u0000\u0000\u0000\u0000\u0000\u0000\u0000\u0000\u0000\u0000\u0000\u0000\u0000\u0000\u0000\u0000\u0000\u0000\u0000\u0000\u0000\u0000\u0000\u0000\u0000\u0000\u0000\u0000\u0000\u0000\u0000\u0000\u0000\u0000\u0000\u0000\u0000\u0000\u0000\u0000\u0000\u0000\u0000\u0000\u0000\u0000\u0000\u0000\u0000",
        "\u0000\u0000\u0000\u0000\u0000\u0000\u0000\u0000\u0000\u0000\u0000\u0000\u0000\u0000\u0000\u0000\u0000\u0000\u0000\u0000\u0000\u0000\u0000\u0000\u0000\u0000\u0000\u0000\u0000\u0000\u0000\u0000\u0000\u0000\u0000\u0000\u0000\u0000\u0000\u0000\u0000\u0000\u0000\u0000\u0000\u0000\u0000\u0000\u0000\u0000\u0000\u0000\u0000\u0000\u0000\u0000\u0000\u0000\u0000\u0000\u0000\u0000\u0000\u0000\u0000\u0000\u0000\u0000\u0000\u0000\u0000\u0000\u0000\u0000\u0000\u0000\u0000\u0000\u0000\u0000\u0000\u0000",
        "\u0000\u0000\u0000\u0000\u0000\u0000\u0000\u0000\u0000\u0000\u0000\u0000\u0000\u0000\u0000\u0000\u0000\u0000\u0000\u0000\u0000\u0000\u0000\u0000\u0000\u0000\u0000\u0000\u0000\u0000\u0000\u0000\u0000\u0000\u0000\u0000\u0000\u0000\u0000\u0000\u0000\u0000\u0000\u0000\u0000\u0000\u0000\u0000\u0000\u0000\u0000\u0000\u0000\u0000\u0000\u0000\u0000\u0000\u0000\u0000\u0000\u0000\u0000\u0000\u0000\u0000\u0000\u0000\u0000\u0000\u0000\u0000\u0000\u0000\u0000\u0000\u0000\u0000\u0000\u0000\u0000\u0000",
        "\u0000\u0000\u0000\u0000\u0000\u0000\u0000\u0000\u0000\u0000\u0000\u0000\u0000\u0000\u0000\u0000\u0000\u0000\u0000\u0000\u0000\u0000\u0000\u0000\u0000\u0000\u0000\u0000\u0000\u0000\u0000\u0000\u0000\u0000\u0000\u0000\u0000\u0000\u0000\u0000\u0000\u0000\u0000\u0000\u0000\u0000\u0000\u0000\u0000\u0000\u0000\u0000\u0000\u0000\u0000\u0000\u0000\u0000\u0000\u0000\u0000\u0000\u0000\u0000\u0000\u0000\u0000\u0000\u0000\u0000\u0000\u0000\u0000\u0000\u0000\u0000\u0000\u0000\u0000\u0000\u0000\u0000",
        "\u0000\u0000\u0000\u0000\u0000\u0000\u0000\u0000\u0000\u0000\u0000\u0000\u0000\u0000\u0000\u0000\u0000\u0000\u0000\u0000\u0000\u0000\u0000\u0000\u0000\u0000\u0000\u0000\u0000\u0000\u0000\u0000\u0000\u0000\u0000\u0000\u0000\u0000\u0000\u0000\u0000\u0000\u0000\u0000\u0000\u0000\u0000\u0000\u0000\u0000\u0000\u0000\u0000\u0000\u0000\u0000\u0000\u0000\u0000\u0000\u0000\u0000\u0000\u0000\u0000\u0000\u0000\u0000\u0000\u0000\u0000\u0000\u0000\u0000\u0000\u0000\u0000\u0000\u0000\u0000\u0000\u0000",
        "\u0000\u0000\u0000\u0000\u0000\u0000\u0000\u0000\u0000\u0000\u0000\u0000\u0000\u0000\u0000\u0000\u0000\u0000\u0000\u0000\u0000\u0000\u0000\u0000\u0000\u0000\u0000\u0000\u0000\u0000\u0000\u0000\u0000\u0000\u0000\u0000\u0000\u0000\u0000\u0000\u0000\u0000\u0000\u0000\u0000\u0000\u0000\u0000\u0000\u0000\u0000\u0000\u0000\u0000\u0000\u0000\u0000\u0000\u0000\u0000\u0000\u0000\u0000\u0000\u0000\u0000\u0000\u0000\u0000\u0000\u0000\u0000\u0000\u0000\u0000\u0000\u0000\u0000\u0000\u0000\u0000\u0000",
