{
  "AcquisitionMatrixPE": 70,
  "AcquisitionNumber": 1,
  "AcquisitionTime": "12:38:27.100000",
  "BandwidthPerPixelPhaseEncode": 51.948,
  "BaseResolution": 70,
  "BodyPartExamined": "HEAD",
  "CoilCombinationMethod": "Sum of Squares",
  "ConsistencyInfo": "N4_VE11C_LATEST_20160120",
  "ConversionSoftware": "dcm2niix",
  "ConversionSoftwareVersion": "v1.0.20220720",
  "DerivedVendorReportedEchoSpacing": 0.000550001,
  "DeviceSerialNumber": "66061",
  "DwellTime": 3.3e-06,
  "EchoTime": 0.022,
  "EchoTrainLength": 35,
  "EffectiveEchoSpacing": 0.000275,
  "FlipAngle": 90,
  "HeudiconvVersion": "1.1.1",
  "ImageOrientationPatientDICOM": [0.998299, 0.0119424, 0.057071, -0.0012197, 0.982863, -0.184335],
  "ImageOrientationText": "Tra>Cor(-10.6)>Sag(3.3)",
  "ImageType": [
    "ORIGINAL",
    "PRIMARY",
    "M",
    "ND",
    "NORM",
    "MOSAIC"
],
  "ImagingFrequency": 123.255,
  "InPlanePhaseEncodingDirectionDICOM": "COL",
  "InstitutionAddress": "Street StreetNo,City/1c4204/,District,KR,ZIP",
  "InstitutionName": "SKKU",
  "InstitutionalDepartmentName": "Department",
  "MRAcquisitionType": "2D",
  "MagneticFieldStrength": 3,
  "Manufacturer": "Siemens",
  "ManufacturersModelName": "Prisma",
  "MatrixCoilMode": "GRAPPA",
  "Modality": "MR",
  "NonlinearGradientCorrection": false,
  "ParallelReductionFactorInPlane": 2,
  "PartialFourier": 1,
  "PatientPosition": "HFS",
  "PercentPhaseFOV": 100,
  "PercentSampling": 100,
  "PhaseEncodingDirection": "j-",
  "PhaseEncodingSteps": 70,
  "PhaseResolution": 1,
  "PixelBandwidth": 2165,
  "ProcedureStepDescription": "Head^PI:Others",
  "ProtocolName": "BOLD_ep2d_3x3x3_dimension2",
  "PulseSequenceDetails": "%SiemensSeq%\\ep2d_pace",
  "ReceiveCoilActiveElements": "HC1-7",
  "ReceiveCoilName": "HeadNeck_64",
  "ReconMatrixPE": 70,
  "RefLinesPE": 24,
  "RepetitionTime": 2,
  "SAR": 0.129357,
  "ScanOptions": "FS",
  "ScanningSequence": "EP",
  "SequenceName": "*epfid2d1_70",
  "SequenceVariant": "SK",
  "SeriesDescription": "BOLD_ep2d_3x3x3_dimension2",
  "SeriesNumber": 11,
  "ShimSetting": [5056, 3709, 4419, 483, -52, -51, 74, -10],
  "SliceThickness": 3,
  "SliceTiming": [0.99, 0, 1.0375, 0.0475, 1.085, 0.095, 1.1325, 0.1425, 1.18, 0.19, 1.225, 0.235, 1.2725, 0.2825, 1.32, 0.33, 1.3675, 0.3775, 1.415, 0.425, 1.4625, 0.4725, 1.5075, 0.52, 1.555, 0.565, 1.6025, 0.6125, 1.65, 0.66, 1.6975, 0.7075, 1.745, 0.755, 1.7925, 0.8025, 1.8375, 0.85, 1.885, 0.895, 1.9325, 0.9425],
  "SoftwareVersions": "syngo MR E11",
  "SpacingBetweenSlices": 3,
  "StationName": "AWP66061",
  "TaskName": "dimension",
  "TotalReadoutTime": 0.018975,
  "TxRefAmp": 233.503,
  "dcmmeta_affine": [
    [-2.994896173477173, -0.00365910935215652, 0.17488300800323486, 106.58008575439453],
    [-0.03582732379436493, 2.9485883712768555, -0.5518540143966675, -92.49850463867188],
    [0.17121291160583496, 0.55300372838974, 2.943615436553955, -77.2372817993164],
    [0.0, 0.0, 0.0, 1.0]
],
  "dcmmeta_reorient_transform": [
    [0.0, -1.0, 0.0, 69.0],
    [1.0, 0.0, 0.0, 0.0],
    [0.0, 0.0, -1.0, 41.0],
    [0.0, 0.0, 0.0, 1.0]
],
  "dcmmeta_shape": [70, 70, 42, 437],
  "dcmmeta_slice_dim": 2,
  "dcmmeta_version": 0.6,
  "global": {
    "const": {
      "AcquisitionMatrix": [70, 0, 0, 70],
      "AngioFlag": "N",
      "BitsAllocated": 16,
      "BitsStored": 12,
      "BodyPartExamined": "HEAD",
      "Columns": 490,
      "EchoNumbers": 1,
      "EchoTime": 22.0,
      "EchoTrainLength": 35,
      "FlipAngle": 90.0,
      "HighBit": 11,
      "ImageOrientationPatient": [0.99829869408771, 0.01194244065801, 0.05707096892376, -0.0012197030985, 0.9828627971193, -0.1843345718067],
      "ImagePositionPatient": [-741.65757135467, -715.05537538583, 161.7842772938],
      "ImageType": [
        "ORIGINAL",
        "PRIMARY",
        "M",
        "ND",
        "NORM",
        "MOSAIC"
],
      "ImagedNucleus": "1H",
      "ImagingFrequency": 123.254512,
      "InPlanePhaseEncodingDirection": "COL",
      "MRAcquisitionType": "2D",
      "MagneticFieldStrength": 3.0,
      "Manufacturer": "SIEMENS",
      "ManufacturerModelName": "Prisma",
      "Modality": "MR",
      "NumberOfAverages": 1.0,
      "NumberOfPhaseEncodingSteps": 70,
      "PercentPhaseFieldOfView": 100.0,
      "PercentSampling": 100.0,
      "PerformedProcedureStepStartTime": "114058.893000",
      "PhotometricInterpretation": "MONOCHROME2",
      "PixelBandwidth": 2165.0,
      "PixelRepresentation": 0,
      "PixelSpacing": [3.0, 3.0],
      "ProtocolName": "BOLD_ep2d_3x3x3_dimension2",
      "RepetitionTime": 2000.0,
      "Rows": 490,
      "SAR": 0.12935743316388,
      "SamplesPerPixel": 1,
      "ScanOptions": "FS",
      "ScanningSequence": "EP",
      "SequenceName": "*epfid2d1_70",
      "SequenceVariant": "SK",
      "SeriesDescription": "BOLD_ep2d_3x3x3_dimension2",
      "SeriesNumber": 11,
      "SeriesTime": "123851.437000",
      "SliceLocation": 70.44260901591,
      "SliceThickness": 3.0,
      "SmallestImagePixelValue": 0,
      "SoftwareVersions": "syngo MR E11",
      "SpacingBetweenSlices": 2.9999998768494,
      "SpecificCharacterSet": "ISO_IR 100",
      "StudyID": "1",
      "StudyTime": "114058.832000",
      "TransmitCoilName": "Body",
      "VariableFlipAngleFlag": "N",
      "WindowCenterWidthExplanation": "Algo1",
      "dBdt": 0.0},
    "slices": {}
  },
  "time": {
    "samples": {
      "AcquisitionNumber": [1, 2, 3, 4, 5, 6, 7, 8, 9, 10, 11, 12, 13, 14, 15, 16, 17, 18, 19, 20, 21, 22, 23, 24, 25, 26, 27, 28, 29, 30, 31, 32, 33, 34, 35, 36, 37, 38, 39, 40, 41, 42, 43, 44, 45, 46, 47, 48, 49, 50, 51, 52, 53, 54, 55, 56, 57, 58, 59, 60, 61, 62, 63, 64, 65, 66, 67, 68, 69, 70, 71, 72, 73, 74, 75, 76, 77, 78, 79, 80, 81, 82, 83, 84, 85, 86, 87, 88, 89, 90, 91, 92, 93, 94, 95, 96, 97, 98, 99, 100, 101, 102, 103, 104, 105, 106, 107, 108, 109, 110, 111, 112, 113, 114, 115, 116, 117, 118, 119, 120, 121, 122, 123, 124, 125, 126, 127, 128, 129, 130, 131, 132, 133, 134, 135, 136, 137, 138, 139, 140, 141, 142, 143, 144, 145, 146, 147, 148, 149, 150, 151, 152, 153, 154, 155, 156, 157, 158, 159, 160, 161, 162, 163, 164, 165, 166, 167, 168, 169, 170, 171, 172, 173, 174, 175, 176, 177, 178, 179, 180, 181, 182, 183, 184, 185, 186, 187, 188, 189, 190, 191, 192, 193, 194, 195, 196, 197, 198, 199, 200, 201, 202, 203, 204, 205, 206, 207, 208, 209, 210, 211, 212, 213, 214, 215, 216, 217, 218, 219, 220, 221, 222, 223, 224, 225, 226, 227, 228, 229, 230, 231, 232, 233, 234, 235, 236, 237, 238, 239, 240, 241, 242, 243, 244, 245, 246, 247, 248, 249, 250, 251, 252, 253, 254, 255, 256, 257, 258, 259, 260, 261, 262, 263, 264, 265, 266, 267, 268, 269, 270, 271, 272, 273, 274, 275, 276, 277, 278, 279, 280, 281, 282, 283, 284, 285, 286, 287, 288, 289, 290, 291, 292, 293, 294, 295, 296, 297, 298, 299, 300, 301, 302, 303, 304, 305, 306, 307, 308, 309, 310, 311, 312, 313, 314, 315, 316, 317, 318, 319, 320, 321, 322, 323, 324, 325, 326, 327, 328, 329, 330, 331, 332, 333, 334, 335, 336, 337, 338, 339, 340, 341, 342, 343, 344, 345, 346, 347, 348, 349, 350, 351, 352, 353, 354, 355, 356, 357, 358, 359, 360, 361, 362, 363, 364, 365, 366, 367, 368, 369, 370, 371, 372, 373, 374, 375, 376, 377, 378, 379, 380, 381, 382, 383, 384, 385, 386, 387, 388, 389, 390, 391, 392, 393, 394, 395, 396, 397, 398, 399, 400, 401, 402, 403, 404, 405, 406, 407, 408, 409, 410, 411, 412, 413, 414, 415, 416, 417, 418, 419, 420, 421, 422, 423, 424, 425, 426, 427, 428, 429, 430, 431, 432, 433, 434, 435, 436, 437],
      "AcquisitionTime": ["123827.100000", "123829.100000", "123831.100000", "123833.100000", "123835.100000", "123837.100000", "123839.100000", "123841.100000", "123843.100000", "123845.100000", "123847.100000", "123849.100000", "123851.100000", "123853.100000", "123855.100000", "123857.100000", "123859.100000", "123901.100000", "123903.100000", "123905.100000", "123907.100000", "123909.100000", "123911.100000", "123913.100000", "123915.100000", "123917.100000", "123919.100000", "123921.100000", "123923.100000", "123925.100000", "123927.100000", "123929.100000", "123931.100000", "123933.100000", "123935.100000", "123937.100000", "123939.100000", "123941.100000", "123943.100000", "123945.100000", "123947.100000", "123949.100000", "123951.100000", "123953.100000", "123955.100000", "123957.100000", "123959.100000", "124001.100000", "124003.100000", "124005.100000", "124007.100000", "124009.100000", "124011.100000", "124013.100000", "124015.100000", "124017.100000", "124019.100000", "124021.100000", "124023.100000", "124025.100000", "124027.100000", "124029.100000", "124031.100000", "124033.100000", "124035.100000", "124037.100000", "124039.100000", "124041.100000", "124043.100000", "124045.100000", "124047.100000", "124049.100000", "124051.100000", "124053.100000", "124055.100000", "124057.100000", "124059.100000", "124101.100000", "124103.100000", "124105.100000", "124107.100000", "124109.100000", "124111.100000", "124113.100000", "124115.100000", "124117.100000", "124119.100000", "124121.100000", "124123.100000", "124125.100000", "124127.100000", "124129.100000", "124131.100000", "124133.100000", "124135.100000", "124137.100000", "124139.100000", "124141.100000", "124143.100000", "124145.100000", "124147.100000", "124149.100000", "124151.100000", "124153.100000", "124155.100000", "124157.100000", "124159.100000", "124201.100000", "124203.100000", "124205.100000", "124207.100000", "124209.100000", "124211.100000", "124213.100000", "124215.100000", "124217.100000", "124219.100000", "124221.100000", "124223.100000", "124225.100000", "124227.100000", "124229.100000", "124231.100000", "124233.100000", "124235.100000", "124237.100000", "124239.100000", "124241.100000", "124243.100000", "124245.100000", "124247.100000", "124249.100000", "124251.100000", "124253.100000", "124255.100000", "124257.100000", "124259.100000", "124301.100000", "124303.100000", "124305.100000", "124307.100000", "124309.100000", "124311.100000", "124313.100000", "124315.100000", "124317.100000", "124319.100000", "124321.100000", "124323.100000", "124325.100000", "124327.100000", "124329.100000", "124331.100000", "124333.100000", "124335.100000", "124337.100000", "124339.100000", "124341.100000", "124343.100000", "124345.100000", "124347.100000", "124349.100000", "124351.100000", "124353.100000", "124355.100000", "124357.100000", "124359.100000", "124401.100000", "124403.100000", "124405.100000", "124407.100000", "124409.100000", "124411.100000", "124413.100000", "124415.100000", "124417.100000", "124419.100000", "124421.100000", "124423.100000", "124425.100000", "124427.100000", "124429.100000", "124431.100000", "124433.100000", "124435.100000", "124437.100000", "124439.100000", "124441.100000", "124443.100000", "124445.100000", "124447.100000", "124449.100000", "124451.100000", "124453.100000", "124455.100000", "124457.100000", "124459.100000", "124501.100000", "124503.100000", "124505.100000", "124507.100000", "124509.100000", "124511.100000", "124513.100000", "124515.100000", "124517.100000", "124519.100000", "124521.100000", "124523.100000", "124525.100000", "124527.100000", "124529.100000", "124531.100000", "124533.100000", "124535.100000", "124537.100000", "124539.100000", "124541.100000", "124543.100000", "124545.100000", "124547.100000", "124549.100000", "124551.100000", "124553.100000", "124555.100000", "124557.100000", "124559.100000", "124601.100000", "124603.100000", "124605.100000", "124607.100000", "124609.100000", "124611.100000", "124613.100000", "124615.100000", "124617.100000", "124619.100000", "124621.100000", "124623.100000", "124625.100000", "124627.100000", "124629.100000", "124631.100000", "124633.100000", "124635.100000", "124637.100000", "124639.100000", "124641.100000", "124643.100000", "124645.100000", "124647.100000", "124649.100000", "124651.100000", "124653.100000", "124655.100000", "124657.100000", "124659.100000", "124701.100000", "124703.100000", "124705.100000", "124707.100000", "124709.100000", "124711.100000", "124713.100000", "124715.100000", "124717.100000", "124719.100000", "124721.100000", "124723.100000", "124725.100000", "124727.100000", "124729.100000", "124731.100000", "124733.100000", "124735.100000", "124737.100000", "124739.100000", "124741.100000", "124743.100000", "124745.100000", "124747.100000", "124749.100000", "124751.100000", "124753.100000", "124755.100000", "124757.100000", "124759.100000", "124801.100000", "124803.100000", "124805.100000", "124807.100000", "124809.100000", "124811.100000", "124813.100000", "124815.100000", "124817.100000", "124819.100000", "124821.100000", "124823.100000", "124825.100000", "124827.100000", "124829.100000", "124831.100000", "124833.100000", "124835.100000", "124837.100000", "124839.100000", "124841.100000", "124843.100000", "124845.100000", "124847.100000", "124849.100000", "124851.100000", "124853.100000", "124855.100000", "124857.100000", "124859.100000", "124901.100000", "124903.100000", "124905.100000", "124907.100000", "124909.100000", "124911.100000", "124913.100000", "124915.100000", "124917.100000", "124919.100000", "124921.100000", "124923.100000", "124925.100000", "124927.100000", "124929.100000", "124931.100000", "124933.100000", "124935.100000", "124937.100000", "124939.100000", "124941.100000", "124943.100000", "124945.100000", "124947.100000", "124949.100000", "124951.100000", "124953.100000", "124955.100000", "124957.100000", "124959.100000", "125001.100000", "125003.100000", "125005.100000", "125007.100000", "125009.100000", "125011.100000", "125013.100000", "125015.100000", "125017.100000", "125019.100000", "125021.100000", "125023.100000", "125025.100000", "125027.100000", "125029.100000", "125031.100000", "125033.100000", "125035.100000", "125037.100000", "125039.100000", "125041.100000", "125043.100000", "125045.100000", "125047.100000", "125049.100000", "125051.100000", "125053.100000", "125055.100000", "125057.100000", "125059.100000", "125101.100000", "125103.100000", "125105.100000", "125107.100000", "125109.100000", "125111.100000", "125113.100000", "125115.100000", "125117.100000", "125119.100000", "125121.100000", "125123.100000", "125125.100000", "125127.100000", "125129.100000", "125131.100000", "125133.100000", "125135.100000", "125137.100000", "125139.100000", "125141.100000", "125143.100000", "125145.100000", "125147.100000", "125149.100000", "125151.100000", "125153.100000", "125155.100000", "125157.100000", "125159.100000", "125201.100000", "125203.100000", "125205.100000", "125207.100000", "125209.100000", "125211.100000", "125213.100000", "125215.100000", "125217.100000", "125219.100000", "125221.100000", "125223.100000", "125225.100000", "125227.100000", "125229.100000", "125231.100000", "125233.100000", "125235.100000", "125237.100000", "125239.100000", "125241.100000", "125243.100000", "125245.100000", "125247.100000", "125249.100000", "125251.100000", "125253.100000", "125255.100000", "125257.100000", "125259.100000"],
      "ContentTime": ["123851.440000", "123851.444000", "123851.453000", "123851.456000", "123851.458000", "123851.461000", "123851.464000", "123851.466000", "123851.469000", "123851.471000", "123851.474000", "123851.477000", "123931.435000", "123931.438000", "123931.440000", "123931.444000", "123931.447000", "123931.449000", "123931.452000", "123931.455000", "123931.464000", "123931.467000", "123931.470000", "123931.472000", "123931.475000", "123931.478000", "123931.480000", "123931.483000", "123931.486000", "123931.488000", "123931.491000", "123931.494000", "124011.435000", "124011.438000", "124011.440000", "124011.443000", "124011.446000", "124011.448000", "124011.451000", "124011.454000", "124011.456000", "124011.459000", "124011.461000", "124011.464000", "124011.467000", "124011.469000", "124011.472000", "124011.475000", "124011.477000", "124011.480000", "124011.483000", "124011.485000", "124051.435000", "124051.438000", "124051.447000", "124051.450000", "124051.453000", "124051.455000", "124051.464000", "124051.467000", "124051.470000", "124051.472000", "124051.475000", "124051.477000", "124051.480000", "124051.483000", "124051.485000", "124051.488000", "124051.506000", "124051.508000", "124051.511000", "124051.514000", "124131.436000", "124131.438000", "124131.441000", "124131.444000", "124131.446000", "124131.449000", "124131.452000", "124131.454000", "124131.457000", "124131.460000", "124131.462000", "124131.465000", "124131.468000", "124131.482000", "124131.485000", "124131.487000", "124131.490000", "124131.493000", "124131.495000", "124131.498000", "124211.434000", "124211.437000", "124211.440000", "124211.443000", "124211.445000", "124211.448000", "124211.451000", "124211.453000", "124211.456000", "124211.459000", "124211.462000", "124211.464000", "124211.467000", "124211.470000", "124211.472000", "124211.475000", "124211.478000", "124211.480000", "124211.483000", "124211.485000", "124251.435000", "124251.438000", "124251.440000", "124251.443000", "124251.446000", "124251.448000", "124251.451000", "124251.454000", "124251.457000", "124251.459000", "124251.462000", "124251.464000", "124251.467000", "124251.470000", "124251.472000", "124251.482000", "124251.484000", "124251.487000", "124251.490000", "124251.492000", "124331.436000", "124331.438000", "124331.441000", "124331.444000", "124331.447000", "124331.450000", "124331.452000", "124331.455000", "124331.457000", "124331.460000", "124331.463000", "124331.465000", "124331.468000", "124331.471000", "124331.473000", "124331.476000", "124331.479000", "124331.481000", "124331.484000", "124331.487000", "124411.435000", "124411.438000", "124411.440000", "124411.443000", "124411.446000", "124411.448000", "124411.451000", "124411.454000", "124411.456000", "124411.459000", "124411.462000", "124411.464000", "124411.467000", "124411.470000", "124411.472000", "124411.475000", "124411.478000", "124411.480000", "124411.483000", "124411.486000", "124451.435000", "124451.437000", "124451.440000", "124451.443000", "124451.446000", "124451.448000", "124451.451000", "124451.454000", "124451.456000", "124451.459000", "124451.462000", "124451.464000", "124451.467000", "124451.470000", "124451.472000", "124451.475000", "124451.478000", "124451.480000", "124451.483000", "124451.485000", "124531.435000", "124531.438000", "124531.440000", "124531.443000", "124531.446000", "124531.448000", "124531.451000", "124531.454000", "124531.456000", "124531.459000", "124531.462000", "124531.464000", "124531.467000", "124531.470000", "124531.472000", "124531.475000", "124531.477000", "124531.480000", "124531.483000", "124531.485000", "124611.436000", "124611.439000", "124611.441000", "124611.444000", "124611.446000", "124611.449000", "124611.452000", "124611.455000", "124611.457000", "124611.460000", "124611.463000", "124611.465000", "124611.468000", "124611.471000", "124611.473000", "124611.476000", "124611.479000", "124611.481000", "124611.484000", "124611.487000", "124651.435000", "124651.437000", "124651.440000", "124651.443000", "124651.445000", "124651.448000", "124651.451000", "124651.454000", "124651.456000", "124651.459000", "124651.462000", "124651.464000", "124651.467000", "124651.470000", "124651.472000", "124651.475000", "124651.478000", "124651.480000", "124651.483000", "124651.486000", "124731.435000", "124731.438000", "124731.440000", "124731.443000", "124731.446000", "124731.448000", "124731.451000", "124731.454000", "124731.456000", "124731.459000", "124731.462000", "124731.464000", "124731.467000", "124731.470000", "124731.472000", "124731.475000", "124731.478000", "124731.480000", "124731.483000", "124731.486000", "124811.436000", "124811.439000", "124811.441000", "124811.444000", "124811.447000", "124811.449000", "124811.452000", "124811.455000", "124811.457000", "124811.460000", "124811.463000", "124811.466000", "124811.468000", "124811.471000", "124811.474000", "124811.476000", "124811.479000", "124811.482000", "124811.484000", "124811.487000", "124851.435000", "124851.438000", "124851.440000", "124851.443000", "124851.446000", "124851.448000", "124851.451000", "124851.454000", "124851.456000", "124851.459000", "124851.462000", "124851.464000", "124851.467000", "124851.475000", "124851.489000", "124851.491000", "124851.494000", "124851.497000", "124851.499000", "124851.502000", "124931.435000", "124931.438000", "124931.440000", "124931.443000", "124931.446000", "124931.449000", "124931.451000", "124931.454000", "124931.457000", "124931.459000", "124931.462000", "124931.465000", "124931.467000", "124931.470000", "124931.473000", "124931.475000", "124931.478000", "124931.481000", "124931.483000", "124931.486000", "125011.435000", "125011.438000", "125011.440000", "125011.443000", "125011.446000", "125011.448000", "125011.451000", "125011.454000", "125011.456000", "125011.459000", "125011.462000", "125011.464000", "125011.467000", "125011.470000", "125011.472000", "125011.475000", "125011.478000", "125011.480000", "125011.483000", "125011.486000", "125051.436000", "125051.439000", "125051.441000", "125051.444000", "125051.447000", "125051.449000", "125051.452000", "125051.455000", "125051.458000", "125051.460000", "125051.463000", "125051.466000", "125051.468000", "125051.471000", "125051.473000", "125051.476000", "125051.479000", "125051.482000", "125051.484000", "125051.487000", "125131.435000", "125131.438000", "125131.440000", "125131.443000", "125131.446000", "125131.448000", "125131.451000", "125131.454000", "125131.456000", "125131.459000", "125131.462000", "125131.464000", "125131.467000", "125131.470000", "125131.472000", "125131.475000", "125131.478000", "125131.480000", "125131.483000", "125131.486000", "125211.435000", "125211.438000", "125211.440000", "125211.443000", "125211.446000", "125211.448000", "125211.451000", "125211.454000", "125211.463000", "125211.465000", "125211.468000", "125211.471000", "125211.473000", "125211.476000", "125211.479000", "125211.481000", "125211.484000", "125211.487000", "125211.489000", "125211.492000", "125251.436000", "125251.438000", "125251.441000", "125251.444000", "125251.447000", "125251.449000", "125251.452000", "125251.455000", "125251.458000", "125251.460000", "125251.463000", "125251.466000", "125251.468000", "125251.471000", "125251.474000", "125251.477000", "125251.479000", "125251.482000", "125251.485000", "125251.487000", "125300.536000", "125300.539000", "125300.541000", "125300.544000", "125300.547000"],
      "DataSetTrailingPadding": [
        "\u0000\u0000\u0000\u0000\u0000\u0000\u0000\u0000\u0000\u0000\u0000\u0000\u0000\u0000\u0000\u0000\u0000\u0000\u0000\u0000\u0000\u0000\u0000\u0000\u0000\u0000\u0000\u0000\u0000\u0000\u0000\u0000\u0000\u0000\u0000\u0000\u0000\u0000\u0000\u0000\u0000\u0000\u0000\u0000\u0000\u0000\u0000\u0000\u0000\u0000\u0000\u0000\u0000\u0000\u0000\u0000\u0000\u0000\u0000\u0000\u0000\u0000\u0000\u0000\u0000\u0000\u0000\u0000\u0000\u0000\u0000\u0000\u0000\u0000\u0000\u0000\u0000\u0000\u0000\u0000\u0000\u0000\u0000\u0000\u0000\u0000\u0000\u0000\u0000\u0000\u0000\u0000\u0000\u0000\u0000\u0000\u0000\u0000\u0000\u0000\u0000\u0000\u0000\u0000\u0000\u0000\u0000\u0000\u0000\u0000\u0000\u0000\u0000\u0000\u0000\u0000\u0000\u0000\u0000\u0000\u0000\u0000\u0000\u0000\u0000\u0000\u0000\u0000\u0000\u0000\u0000\u0000\u0000\u0000\u0000\u0000\u0000\u0000\u0000\u0000\u0000\u0000\u0000\u0000\u0000\u0000\u0000\u0000\u0000\u0000\u0000\u0000\u0000\u0000\u0000\u0000\u0000\u0000\u0000\u0000\u0000\u0000\u0000\u0000\u0000\u0000\u0000\u0000\u0000\u0000\u0000\u0000\u0000\u0000\u0000\u0000\u0000\u0000\u0000\u0000\u0000\u0000\u0000\u0000\u0000\u0000\u0000\u0000\u0000\u0000\u0000\u0000\u0000\u0000\u0000\u0000\u0000\u0000\u0000\u0000\u0000\u0000\u0000\u0000\u0000\u0000\u0000\u0000\u0000\u0000\u0000\u0000\u0000\u0000\u0000\u0000\u0000\u0000\u0000\u0000\u0000\u0000\u0000\u0000\u0000\u0000\u0000\u0000\u0000\u0000\u0000\u0000\u0000\u0000\u0000\u0000\u0000\u0000\u0000\u0000\u0000\u0000\u0000\u0000\u0000\u0000\u0000\u0000\u0000\u0000\u0000\u0000\u0000\u0000\u0000\u0000\u0000\u0000\u0000\u0000\u0000\u0000\u0000\u0000\u0000\u0000\u0000\u0000\u0000\u0000\u0000\u0000\u0000\u0000\u0000\u0000\u0000\u0000\u0000\u0000\u0000\u0000\u0000\u0000\u0000\u0000\u0000\u0000\u0000\u0000\u0000\u0000\u0000\u0000\u0000\u0000\u0000\u0000\u0000\u0000\u0000\u0000\u0000\u0000\u0000\u0000\u0000\u0000\u0000\u0000\u0000\u0000\u0000\u0000\u0000\u0000",
        "\u0000\u0000\u0000\u0000\u0000\u0000\u0000\u0000\u0000\u0000\u0000\u0000\u0000\u0000\u0000\u0000\u0000\u0000\u0000\u0000\u0000\u0000\u0000\u0000\u0000\u0000\u0000\u0000\u0000\u0000\u0000\u0000\u0000\u0000\u0000\u0000\u0000\u0000\u0000\u0000\u0000\u0000\u0000\u0000\u0000\u0000\u0000\u0000\u0000\u0000\u0000\u0000\u0000\u0000\u0000\u0000\u0000\u0000\u0000\u0000\u0000\u0000\u0000\u0000\u0000\u0000\u0000\u0000\u0000\u0000\u0000\u0000\u0000\u0000\u0000\u0000\u0000\u0000\u0000\u0000\u0000\u0000\u0000\u0000\u0000\u0000\u0000\u0000\u0000\u0000\u0000\u0000\u0000\u0000\u0000\u0000\u0000\u0000\u0000\u0000\u0000\u0000\u0000\u0000\u0000\u0000\u0000\u0000\u0000\u0000\u0000\u0000\u0000\u0000\u0000\u0000\u0000\u0000\u0000\u0000\u0000\u0000\u0000\u0000\u0000\u0000\u0000\u0000\u0000\u0000\u0000\u0000\u0000\u0000\u0000\u0000\u0000\u0000\u0000\u0000\u0000\u0000\u0000\u0000\u0000\u0000\u0000\u0000\u0000\u0000\u0000\u0000\u0000\u0000\u0000\u0000\u0000\u0000\u0000\u0000\u0000\u0000\u0000\u0000\u0000\u0000\u0000\u0000\u0000\u0000\u0000\u0000\u0000\u0000\u0000\u0000\u0000\u0000\u0000\u0000\u0000\u0000\u0000\u0000\u0000\u0000\u0000\u0000\u0000\u0000\u0000\u0000\u0000\u0000\u0000\u0000\u0000\u0000\u0000\u0000\u0000\u0000\u0000\u0000\u0000\u0000\u0000\u0000\u0000\u0000\u0000\u0000\u0000\u0000\u0000\u0000\u0000\u0000\u0000\u0000\u0000\u0000\u0000\u0000\u0000\u0000\u0000\u0000\u0000\u0000\u0000\u0000\u0000\u0000\u0000\u0000\u0000\u0000\u0000\u0000\u0000\u0000\u0000\u0000\u0000\u0000\u0000\u0000\u0000\u0000\u0000\u0000\u0000\u0000\u0000\u0000\u0000\u0000\u0000\u0000\u0000\u0000\u0000\u0000\u0000\u0000\u0000\u0000\u0000\u0000\u0000\u0000\u0000\u0000\u0000\u0000\u0000\u0000\u0000\u0000\u0000\u0000\u0000\u0000\u0000\u0000\u0000\u0000\u0000\u0000\u0000\u0000\u0000\u0000\u0000\u0000\u0000\u0000\u0000\u0000\u0000\u0000\u0000\u0000\u0000\u0000\u0000\u0000\u0000\u0000\u0000\u0000\u0000\u0000\u0000\u0000\u0000\u0000",
        "\u0000\u0000\u0000\u0000\u0000\u0000\u0000\u0000\u0000\u0000\u0000\u0000\u0000\u0000\u0000\u0000\u0000\u0000\u0000\u0000\u0000\u0000\u0000\u0000\u0000\u0000\u0000\u0000\u0000\u0000\u0000\u0000\u0000\u0000\u0000\u0000\u0000\u0000\u0000\u0000\u0000\u0000\u0000\u0000\u0000\u0000\u0000\u0000\u0000\u0000\u0000\u0000\u0000\u0000\u0000\u0000\u0000\u0000\u0000\u0000\u0000\u0000\u0000\u0000\u0000\u0000\u0000\u0000\u0000\u0000\u0000\u0000\u0000\u0000\u0000\u0000\u0000\u0000\u0000\u0000\u0000\u0000\u0000\u0000\u0000\u0000\u0000\u0000\u0000\u0000\u0000\u0000\u0000\u0000\u0000\u0000\u0000\u0000\u0000\u0000\u0000\u0000\u0000\u0000\u0000\u0000\u0000\u0000\u0000\u0000\u0000\u0000\u0000\u0000\u0000\u0000\u0000\u0000\u0000\u0000\u0000\u0000\u0000\u0000\u0000\u0000\u0000\u0000\u0000\u0000\u0000\u0000\u0000\u0000\u0000\u0000\u0000\u0000\u0000\u0000\u0000\u0000\u0000\u0000\u0000\u0000\u0000\u0000\u0000\u0000\u0000\u0000\u0000\u0000\u0000\u0000\u0000\u0000\u0000\u0000\u0000\u0000\u0000\u0000\u0000\u0000\u0000\u0000\u0000\u0000\u0000\u0000\u0000\u0000\u0000\u0000\u0000\u0000\u0000\u0000\u0000\u0000\u0000\u0000\u0000\u0000\u0000\u0000\u0000\u0000\u0000\u0000\u0000\u0000\u0000\u0000\u0000\u0000\u0000\u0000\u0000\u0000\u0000\u0000\u0000\u0000\u0000\u0000\u0000\u0000\u0000\u0000\u0000\u0000\u0000\u0000\u0000\u0000\u0000\u0000\u0000\u0000\u0000\u0000\u0000\u0000\u0000\u0000\u0000\u0000\u0000\u0000\u0000\u0000\u0000\u0000\u0000\u0000\u0000\u0000\u0000\u0000\u0000\u0000\u0000\u0000\u0000\u0000\u0000\u0000\u0000\u0000\u0000\u0000\u0000\u0000\u0000\u0000\u0000\u0000\u0000\u0000\u0000\u0000\u0000\u0000\u0000\u0000\u0000\u0000\u0000\u0000\u0000\u0000\u0000\u0000\u0000\u0000\u0000\u0000\u0000\u0000\u0000\u0000\u0000\u0000\u0000\u0000\u0000\u0000\u0000\u0000\u0000\u0000\u0000\u0000\u0000\u0000\u0000\u0000\u0000\u0000\u0000\u0000\u0000\u0000\u0000\u0000\u0000\u0000\u0000\u0000\u0000\u0000\u0000\u0000\u0000\u0000",
