{
  "AcquisitionMatrixPE": 70,
  "AcquisitionNumber": 1,
  "AcquisitionTime": "16:17:48.660000",
  "BandwidthPerPixelPhaseEncode": 51.948,
  "BaseResolution": 70,
  "BodyPartExamined": "HEAD",
  "CoilCombinationMethod": "Sum of Squares",
  "ConsistencyInfo": "N4_VE11C_LATEST_20160120",
  "ConversionSoftware": "dcm2niix",
  "ConversionSoftwareVersion": "v1.0.20220720",
  "DerivedVendorReportedEchoSpacing": 0.000550001,
  "DeviceSerialNumber": "66061",
  "DwellTime": 3.3e-06,
  "EchoTime": 0.022,
  "EchoTrainLength": 35,
  "EffectiveEchoSpacing": 0.000275,
  "FlipAngle": 90,
  "HeudiconvVersion": "1.1.1",
  "ImageOrientationPatientDICOM": [0.999976, -6.14303e-05, -0.00696977, -0.00122172, 0.982935, -0.183947],
  "ImageOrientationText": "Tra>Cor(-10.6)>Sag(-0.4)",
  "ImageType": [
    "ORIGINAL",
    "PRIMARY",
    "M",
    "ND",
    "NORM",
    "MOSAIC"
],
  "ImagingFrequency": 123.255,
  "InPlanePhaseEncodingDirectionDICOM": "COL",
  "InstitutionAddress": "Street StreetNo,City/1c4204/,District,KR,ZIP",
  "InstitutionName": "SKKU",
  "InstitutionalDepartmentName": "Department",
  "MRAcquisitionType": "2D",
  "MagneticFieldStrength": 3,
  "Manufacturer": "Siemens",
  "ManufacturersModelName": "Prisma",
  "MatrixCoilMode": "GRAPPA",
  "Modality": "MR",
  "NonlinearGradientCorrection": false,
  "ParallelReductionFactorInPlane": 2,
  "PartialFourier": 1,
  "PatientPosition": "HFS",
  "PercentPhaseFOV": 100,
  "PercentSampling": 100,
  "PhaseEncodingDirection": "j-",
  "PhaseEncodingSteps": 70,
  "PhaseResolution": 1,
  "PixelBandwidth": 2165,
  "ProcedureStepDescription": "Head^PI:Others",
  "ProtocolName": "BOLD_ep2d_3x3x3_response1",
  "PulseSequenceDetails": "%SiemensSeq%\\ep2d_pace",
  "ReceiveCoilActiveElements": "HC1-7",
  "ReceiveCoilName": "HeadNeck_64",
  "ReconMatrixPE": 70,
  "RefLinesPE": 24,
  "RepetitionTime": 2,
  "SAR": 0.136682,
  "ScanOptions": "FS",
  "ScanningSequence": "EP",
  "SequenceName": "*epfid2d1_70",
  "SequenceVariant": "SK",
  "SeriesDescription": "BOLD_ep2d_3x3x3_response1",
  "SeriesNumber": 8,
  "ShimSetting": [5053, 3707, 4447, 388, -87, -47, -12, 40],
  "SliceThickness": 3,
  "SliceTiming": [0.99, 0, 1.0375, 0.0475, 1.085, 0.095, 1.1325, 0.1425, 1.18, 0.19, 1.225, 0.235, 1.2725, 0.2825, 1.32, 0.33, 1.3675, 0.3775, 1.415, 0.425, 1.4625, 0.4725, 1.51, 0.52, 1.555, 0.565, 1.6025, 0.6125, 1.65, 0.66, 1.6975, 0.7075, 1.745, 0.755, 1.7925, 0.8025, 1.84, 0.85, 1.885, 0.895, 1.9325, 0.9425],
  "SoftwareVersions": "syngo MR E11",
  "SpacingBetweenSlices": 3,
  "StationName": "AWP66061",
  "TaskName": "response",
  "TotalReadoutTime": 0.018975,
  "TxRefAmp": 241.82,
  "dcmmeta_affine": [
    [-2.999927043914795, -0.0036651522386819124, -0.020586390048265457, 103.92327880859375],
    [0.000184290882316418, 2.948806047439575, -0.5518540740013123, -88.94703674316406],
    [-0.020909298211336136, 0.5518419146537781, 2.9487342834472656, -69.36277770996094],
    [0.0, 0.0, 0.0, 1.0]
],
  "dcmmeta_reorient_transform": [
    [0.0, -1.0, 0.0, 69.0],
    [1.0, 0.0, 0.0, 0.0],
    [0.0, 0.0, -1.0, 41.0],
    [0.0, 0.0, 0.0, 1.0]
],
  "dcmmeta_shape": [70, 70, 42, 341],
  "dcmmeta_slice_dim": 2,
  "dcmmeta_version": 0.6,
  "global": {
    "const": {
      "AcquisitionMatrix": [70, 0, 0, 70],
      "AngioFlag": "N",
      "BitsAllocated": 16,
      "BitsStored": 12,
      "BodyPartExamined": "HEAD",
      "Columns": 490,
      "EchoNumbers": 1,
      "EchoTime": 22.0,
      "EchoTrainLength": 35,
      "FlipAngle": 90.0,
      "HighBit": 11,
      "ImageOrientationPatient": [0.99997570899732, -6.14302937e-05, -0.0069697662533, -0.0012217174191, 0.98293534618348, -0.1839473093843],
      "ImagePositionPatient": [-732.04135286594, -711.1051306082, 209.89017455602],
      "ImageType": [
        "ORIGINAL",
        "PRIMARY",
        "M",
        "ND",
        "NORM",
        "MOSAIC"
],
      "ImagedNucleus": "1H",
      "ImagingFrequency": 123.254641,
      "InPlanePhaseEncodingDirection": "COL",
      "MRAcquisitionType": "2D",
      "MagneticFieldStrength": 3.0,
      "Manufacturer": "SIEMENS",
      "ManufacturerModelName": "Prisma",
      "Modality": "MR",
      "NumberOfAverages": 1.0,
      "NumberOfPhaseEncodingSteps": 70,
      "PercentPhaseFieldOfView": 100.0,
      "PercentSampling": 100.0,
      "PerformedProcedureStepStartTime": "153033.359000",
      "PhotometricInterpretation": "MONOCHROME2",
      "PixelBandwidth": 2165.0,
      "PixelRepresentation": 0,
      "PixelSpacing": [3.0, 3.0],
      "ProtocolName": "BOLD_ep2d_3x3x3_response1",
      "RepetitionTime": 2000.0,
      "Rows": 490,
      "SAR": 0.13668157259929,
      "SamplesPerPixel": 1,
      "ScanOptions": "FS",
      "ScanningSequence": "EP",
      "SequenceName": "*epfid2d1_70",
      "SequenceVariant": "SK",
      "SeriesDescription": "BOLD_ep2d_3x3x3_response1",
      "SeriesNumber": 8,
      "SeriesTime": "161839.956000",
      "SliceLocation": 70.471328422725,
      "SliceThickness": 3.0,
      "SmallestImagePixelValue": 0,
      "SoftwareVersions": "syngo MR E11",
      "SpacingBetweenSlices": 3.0000000925854,
      "SpecificCharacterSet": "ISO_IR 100",
      "StudyID": "1",
      "StudyTime": "153033.292000",
      "TransmitCoilName": "Body",
      "VariableFlipAngleFlag": "N",
      "WindowCenterWidthExplanation": "Algo1",
      "dBdt": 0.0},
    "slices": {}
  },
  "time": {
    "samples": {
      "AcquisitionNumber": [1, 2, 3, 4, 5, 6, 7, 8, 9, 10, 11, 12, 13, 14, 15, 16, 17, 18, 19, 20, 21, 22, 23, 24, 25, 26, 27, 28, 29, 30, 31, 32, 33, 34, 35, 36, 37, 38, 39, 40, 41, 42, 43, 44, 45, 46, 47, 48, 49, 50, 51, 52, 53, 54, 55, 56, 57, 58, 59, 60, 61, 62, 63, 64, 65, 66, 67, 68, 69, 70, 71, 72, 73, 74, 75, 76, 77, 78, 79, 80, 81, 82, 83, 84, 85, 86, 87, 88, 89, 90, 91, 92, 93, 94, 95, 96, 97, 98, 99, 100, 101, 102, 103, 104, 105, 106, 107, 108, 109, 110, 111, 112, 113, 114, 115, 116, 117, 118, 119, 120, 121, 122, 123, 124, 125, 126, 127, 128, 129, 130, 131, 132, 133, 134, 135, 136, 137, 138, 139, 140, 141, 142, 143, 144, 145, 146, 147, 148, 149, 150, 151, 152, 153, 154, 155, 156, 157, 158, 159, 160, 161, 162, 163, 164, 165, 166, 167, 168, 169, 170, 171, 172, 173, 174, 175, 176, 177, 178, 179, 180, 181, 182, 183, 184, 185, 186, 187, 188, 189, 190, 191, 192, 193, 194, 195, 196, 197, 198, 199, 200, 201, 202, 203, 204, 205, 206, 207, 208, 209, 210, 211, 212, 213, 214, 215, 216, 217, 218, 219, 220, 221, 222, 223, 224, 225, 226, 227, 228, 229, 230, 231, 232, 233, 234, 235, 236, 237, 238, 239, 240, 241, 242, 243, 244, 245, 246, 247, 248, 249, 250, 251, 252, 253, 254, 255, 256, 257, 258, 259, 260, 261, 262, 263, 264, 265, 266, 267, 268, 269, 270, 271, 272, 273, 274, 275, 276, 277, 278, 279, 280, 281, 282, 283, 284, 285, 286, 287, 288, 289, 290, 291, 292, 293, 294, 295, 296, 297, 298, 299, 300, 301, 302, 303, 304, 305, 306, 307, 308, 309, 310, 311, 312, 313, 314, 315, 316, 317, 318, 319, 320, 321, 322, 323, 324, 325, 326, 327, 328, 329, 330, 331, 332, 333, 334, 335, 336, 337, 338, 339, 340, 341],
      "AcquisitionTime": ["161748.660000", "161750.660000", "161752.660000", "161754.660000", "161756.660000", "161758.660000", "161800.660000", "161802.660000", "161804.660000", "161806.660000", "161808.660000", "161810.660000", "161812.660000", "161814.660000", "161816.660000", "161818.660000", "161820.660000", "161822.660000", "161824.660000", "161826.660000", "161828.660000", "161830.660000", "161832.660000", "161834.660000", "161836.660000", "161838.660000", "161840.660000", "161842.660000", "161844.660000", "161846.660000", "161848.660000", "161850.660000", "161852.660000", "161854.660000", "161856.660000", "161858.660000", "161900.660000", "161902.660000", "161904.660000", "161906.660000", "161908.660000", "161910.660000", "161912.660000", "161914.660000", "161916.660000", "161918.660000", "161920.660000", "161922.660000", "161924.660000", "161926.660000", "161928.660000", "161930.660000", "161932.660000", "161934.660000", "161936.660000", "161938.660000", "161940.660000", "161942.660000", "161944.660000", "161946.660000", "161948.660000", "161950.660000", "161952.660000", "161954.660000", "161956.660000", "161958.660000", "162000.660000", "162002.660000", "162004.660000", "162006.660000", "162008.660000", "162010.660000", "162012.660000", "162014.660000", "162016.660000", "162018.660000", "162020.660000", "162022.660000", "162024.660000", "162026.660000", "162028.660000", "162030.660000", "162032.660000", "162034.660000", "162036.660000", "162038.660000", "162040.660000", "162042.660000", "162044.660000", "162046.660000", "162048.660000", "162050.660000", "162052.660000", "162054.660000", "162056.660000", "162058.660000", "162100.660000", "162102.660000", "162104.660000", "162106.660000", "162108.660000", "162110.660000", "162112.660000", "162114.660000", "162116.660000", "162118.660000", "162120.660000", "162122.660000", "162124.660000", "162126.660000", "162128.660000", "162130.660000", "162132.660000", "162134.660000", "162136.660000", "162138.660000", "162140.660000", "162142.660000", "162144.660000", "162146.660000", "162148.660000", "162150.660000", "162152.660000", "162154.660000", "162156.660000", "162158.660000", "162200.660000", "162202.660000", "162204.660000", "162206.660000", "162208.660000", "162210.660000", "162212.660000", "162214.660000", "162216.660000", "162218.660000", "162220.660000", "162222.660000", "162224.660000", "162226.660000", "162228.660000", "162230.660000", "162232.660000", "162234.660000", "162236.660000", "162238.660000", "162240.660000", "162242.660000", "162244.660000", "162246.660000", "162248.660000", "162250.660000", "162252.660000", "162254.660000", "162256.660000", "162258.660000", "162300.660000", "162302.660000", "162304.660000", "162306.660000", "162308.660000", "162310.660000", "162312.660000", "162314.660000", "162316.660000", "162318.660000", "162320.660000", "162322.660000", "162324.660000", "162326.660000", "162328.660000", "162330.660000", "162332.660000", "162334.660000", "162336.660000", "162338.660000", "162340.660000", "162342.660000", "162344.660000", "162346.660000", "162348.660000", "162350.660000", "162352.660000", "162354.660000", "162356.660000", "162358.660000", "162400.660000", "162402.660000", "162404.660000", "162406.660000", "162408.660000", "162410.660000", "162412.660000", "162414.660000", "162416.660000", "162418.660000", "162420.660000", "162422.660000", "162424.660000", "162426.660000", "162428.660000", "162430.660000", "162432.660000", "162434.660000", "162436.660000", "162438.660000", "162440.660000", "162442.660000", "162444.660000", "162446.660000", "162448.660000", "162450.660000", "162452.660000", "162454.660000", "162456.660000", "162458.660000", "162500.660000", "162502.660000", "162504.660000", "162506.660000", "162508.660000", "162510.660000", "162512.660000", "162514.660000", "162516.660000", "162518.660000", "162520.660000", "162522.660000", "162524.660000", "162526.660000", "162528.660000", "162530.660000", "162532.660000", "162534.660000", "162536.660000", "162538.660000", "162540.660000", "162542.660000", "162544.660000", "162546.660000", "162548.660000", "162550.660000", "162552.660000", "162554.660000", "162556.660000", "162558.660000", "162600.660000", "162602.660000", "162604.660000", "162606.660000", "162608.660000", "162610.660000", "162612.660000", "162614.660000", "162616.660000", "162618.660000", "162620.660000", "162622.660000", "162624.660000", "162626.660000", "162628.660000", "162630.660000", "162632.660000", "162634.660000", "162636.660000", "162638.660000", "162640.660000", "162642.660000", "162644.660000", "162646.660000", "162648.660000", "162650.660000", "162652.660000", "162654.660000", "162656.660000", "162658.660000", "162700.660000", "162702.660000", "162704.660000", "162706.660000", "162708.660000", "162710.660000", "162712.660000", "162714.660000", "162716.660000", "162718.660000", "162720.660000", "162722.660000", "162724.660000", "162726.660000", "162728.660000", "162730.660000", "162732.660000", "162734.660000", "162736.660000", "162738.660000", "162740.660000", "162742.660000", "162744.660000", "162746.660000", "162748.660000", "162750.660000", "162752.660000", "162754.660000", "162756.660000", "162758.660000", "162800.660000", "162802.660000", "162804.660000", "162806.660000", "162808.660000", "162810.660000", "162812.660000", "162814.660000", "162816.660000", "162818.660000", "162820.660000", "162822.660000", "162824.660000", "162826.660000", "162828.660000", "162830.660000", "162832.660000", "162834.660000", "162836.660000", "162838.660000", "162840.660000", "162842.660000", "162844.660000", "162846.660000", "162848.660000", "162850.660000", "162852.660000", "162854.660000", "162856.660000", "162858.660000", "162900.660000", "162902.660000", "162904.660000", "162906.660000", "162908.660000"],
      "ContentTime": ["161839.959000", "161839.963000", "161839.965000", "161839.978000", "161839.984000", "161839.987000", "161839.993000", "161839.996000", "161839.998000", "161840.002000", "161840.005000", "161840.007000", "161840.010000", "161840.013000", "161840.015000", "161840.018000", "161840.020000", "161840.023000", "161840.026000", "161840.028000", "161840.031000", "161840.033000", "161840.036000", "161840.039000", "161840.041000", "161859.955000", "161859.957000", "161859.960000", "161859.963000", "161859.965000", "161859.968000", "161859.971000", "161859.973000", "161859.976000", "161859.978000", "161939.954000", "161939.957000", "161939.960000", "161939.963000", "161939.965000", "161939.968000", "161939.970000", "161939.973000", "161939.976000", "161939.978000", "161939.981000", "161939.983000", "161939.986000", "161939.989000", "161939.991000", "161939.994000", "161939.997000", "161940.000000", "161940.003000", "161940.006000", "162019.954000", "162019.957000", "162019.960000", "162019.963000", "162019.965000", "162019.968000", "162019.971000", "162019.973000", "162019.976000", "162019.978000", "162019.981000", "162019.984000", "162019.986000", "162019.989000", "162019.992000", "162019.994000", "162019.997000", "162019.999000", "162020.002000", "162020.005000", "162059.954000", "162059.957000", "162059.960000", "162059.963000", "162059.965000", "162059.968000", "162059.970000", "162059.973000", "162059.976000", "162059.978000", "162059.981000", "162059.984000", "162059.986000", "162059.989000", "162059.991000", "162059.994000", "162059.997000", "162100.000000", "162100.003000", "162100.005000", "162139.954000", "162139.957000", "162139.960000", "162139.963000", "162139.965000", "162139.968000", "162139.971000", "162139.985000", "162139.988000", "162139.990000", "162139.993000", "162139.996000", "162139.998000", "162140.002000", "162140.004000", "162140.007000", "162140.010000", "162140.012000", "162140.015000", "162140.018000", "162219.954000", "162219.957000", "162219.960000", "162219.963000", "162219.965000", "162219.968000", "162219.971000", "162219.973000", "162219.976000", "162219.979000", "162219.981000", "162219.984000", "162219.986000", "162219.989000", "162219.992000", "162219.994000", "162220.005000", "162220.008000", "162220.010000", "162220.013000", "162259.955000", "162259.957000", "162259.960000", "162259.963000", "162259.965000", "162259.968000", "162259.971000", "162259.973000", "162259.976000", "162259.979000", "162259.981000", "162259.984000", "162259.986000", "162259.989000", "162259.992000", "162259.994000", "162259.997000", "162300.000000", "162300.003000", "162300.006000", "162339.954000", "162339.957000", "162339.960000", "162339.963000", "162339.965000", "162339.968000", "162339.971000", "162339.973000", "162339.976000", "162339.979000", "162339.981000", "162339.984000", "162339.986000", "162339.989000", "162339.992000", "162339.994000", "162339.997000", "162340.001000", "162340.003000", "162340.006000", "162419.955000", "162419.957000", "162419.960000", "162419.963000", "162419.965000", "162419.968000", "162419.971000", "162419.973000", "162419.976000", "162419.979000", "162419.981000", "162419.984000", "162419.986000", "162419.989000", "162419.992000", "162419.994000", "162419.997000", "162420.000000", "162420.003000", "162420.006000", "162459.955000", "162459.957000", "162459.960000", "162459.963000", "162459.965000", "162459.968000", "162459.971000", "162459.973000", "162459.976000", "162459.979000", "162459.981000", "162459.984000", "162459.987000", "162459.989000", "162459.992000", "162459.994000", "162459.997000", "162500.001000", "162500.003000", "162500.006000", "162539.954000", "162539.957000", "162539.960000", "162539.963000", "162539.965000", "162539.968000", "162539.971000", "162539.973000", "162539.976000", "162539.979000", "162539.987000", "162539.990000", "162539.992000", "162539.995000", "162539.998000", "162540.002000", "162540.004000", "162540.007000", "162540.009000", "162540.012000", "162619.954000", "162619.957000", "162619.960000", "162619.963000", "162619.965000", "162619.968000", "162619.971000", "162619.973000", "162619.976000", "162619.978000", "162619.981000", "162619.984000", "162619.986000", "162619.989000", "162619.992000", "162619.994000", "162619.997000", "162620.000000", "162620.003000", "162620.006000", "162659.955000", "162659.957000", "162659.960000", "162659.963000", "162659.965000", "162659.968000", "162659.971000", "162659.973000", "162659.976000", "162659.978000", "162659.981000", "162659.984000", "162659.986000", "162659.989000", "162659.991000", "162659.994000", "162659.997000", "162700.000000", "162700.003000", "162700.006000", "162739.954000", "162739.957000", "162739.960000", "162739.963000", "162739.965000", "162739.968000", "162739.971000", "162739.973000", "162739.976000", "162739.979000", "162739.981000", "162739.984000", "162739.987000", "162739.989000", "162739.992000", "162739.995000", "162739.997000", "162740.001000", "162740.004000", "162740.006000", "162819.955000", "162819.957000", "162819.960000", "162819.963000", "162819.965000", "162819.968000", "162819.970000", "162819.973000", "162819.976000", "162819.978000", "162819.981000", "162819.984000", "162819.987000", "162819.989000", "162819.992000", "162819.994000", "162819.997000", "162820.001000", "162820.003000", "162820.006000", "162859.955000", "162859.957000", "162859.960000", "162859.963000", "162859.965000", "162859.968000", "162859.971000", "162859.973000", "162859.993000", "162859.996000", "162859.998000", "162900.002000", "162900.005000", "162900.007000", "162900.010000", "162900.012000", "162900.015000", "162900.018000", "162900.020000", "162900.023000", "162910.320000", "162910.324000", "162910.326000", "162910.329000", "162910.332000", "162910.335000"],
      "InstanceCreationTime": ["161839.959000", "161839.963000", "161839.965000", "161839.978000", "161839.984000", "161839.987000", "161839.993000", "161839.996000", "161839.998000", "161840.002000", "161840.005000", "161840.007000", "161840.010000", "161840.013000", "161840.015000", "161840.018000", "161840.020000", "161840.023000", "161840.026000", "161840.028000", "161840.031000", "161840.033000", "161840.036000", "161840.039000", "161840.041000", "161859.955000", "161859.957000", "161859.960000", "161859.963000", "161859.965000", "161859.968000", "161859.971000", "161859.973000", "161859.976000", "161859.978000", "161939.954000", "161939.957000", "161939.960000", "161939.963000", "161939.965000", "161939.968000", "161939.970000", "161939.973000", "161939.976000", "161939.978000", "161939.981000", "161939.983000", "161939.986000", "161939.989000", "161939.991000", "161939.994000", "161939.997000", "161940.000000", "161940.003000", "161940.006000", "162019.954000", "162019.957000", "162019.960000", "162019.963000", "162019.965000", "162019.968000", "162019.971000", "162019.973000", "162019.976000", "162019.978000", "162019.981000", "162019.984000", "162019.986000", "162019.989000", "162019.992000", "162019.994000", "162019.997000", "162019.999000", "162020.002000", "162020.005000", "162059.954000", "162059.957000", "162059.960000", "162059.963000", "162059.965000", "162059.968000", "162059.970000", "162059.973000", "162059.976000", "162059.978000", "162059.981000", "162059.984000", "162059.986000", "162059.989000", "162059.991000", "162059.994000", "162059.997000", "162100.000000", "162100.003000", "162100.005000", "162139.954000", "162139.957000", "162139.960000", "162139.963000", "162139.965000", "162139.968000", "162139.971000", "162139.985000", "162139.988000", "162139.990000", "162139.993000", "162139.996000", "162139.998000", "162140.002000", "162140.004000", "162140.007000", "162140.010000", "162140.012000", "162140.015000", "162140.018000", "162219.954000", "162219.957000", "162219.960000", "162219.963000", "162219.965000", "162219.968000", "162219.971000", "162219.973000", "162219.976000", "162219.979000", "162219.981000", "162219.984000", "162219.986000", "162219.989000", "162219.992000", "162219.994000", "162220.005000", "162220.008000", "162220.010000", "162220.013000", "162259.955000", "162259.957000", "162259.960000", "162259.963000", "162259.965000", "162259.968000", "162259.971000", "162259.973000", "162259.976000", "162259.979000", "162259.981000", "162259.984000", "162259.986000", "162259.989000", "162259.992000", "162259.994000", "162259.997000", "162300.000000", "162300.003000", "162300.006000", "162339.954000", "162339.957000", "162339.960000", "162339.963000", "162339.965000", "162339.968000", "162339.971000", "162339.973000", "162339.976000", "162339.979000", "162339.981000", "162339.984000", "162339.986000", "162339.989000", "162339.992000", "162339.994000", "162339.997000", "162340.001000", "162340.003000", "162340.006000", "162419.955000", "162419.957000", "162419.960000", "162419.963000", "162419.965000", "162419.968000", "162419.971000", "162419.973000", "162419.976000", "162419.979000", "162419.981000", "162419.984000", "162419.986000", "162419.989000", "162419.992000", "162419.994000", "162419.997000", "162420.000000", "162420.003000", "162420.006000", "162459.955000", "162459.957000", "162459.960000", "162459.963000", "162459.965000", "162459.968000", "162459.971000", "162459.973000", "162459.976000", "162459.979000", "162459.981000", "162459.984000", "162459.987000", "162459.989000", "162459.992000", "162459.994000", "162459.997000", "162500.001000", "162500.003000", "162500.006000", "162539.954000", "162539.957000", "162539.960000", "162539.963000", "162539.965000", "162539.968000", "162539.971000", "162539.973000", "162539.976000", "162539.979000", "162539.987000", "162539.990000", "162539.992000", "162539.995000", "162539.998000", "162540.002000", "162540.004000", "162540.007000", "162540.009000", "162540.012000", "162619.954000", "162619.957000", "162619.960000", "162619.963000", "162619.965000", "162619.968000", "162619.971000", "162619.973000", "162619.976000", "162619.978000", "162619.981000", "162619.984000", "162619.986000", "162619.989000", "162619.992000", "162619.994000", "162619.997000", "162620.000000", "162620.003000", "162620.006000", "162659.955000", "162659.957000", "162659.960000", "162659.963000", "162659.965000", "162659.968000", "162659.971000", "162659.973000", "162659.976000", "162659.978000", "162659.981000", "162659.984000", "162659.986000", "162659.989000", "162659.991000", "162659.994000", "162659.997000", "162700.000000", "162700.003000", "162700.006000", "162739.954000", "162739.957000", "162739.960000", "162739.963000", "162739.965000", "162739.968000", "162739.971000", "162739.973000", "162739.976000", "162739.979000", "162739.981000", "162739.984000", "162739.987000", "162739.989000", "162739.992000", "162739.995000", "162739.997000", "162740.001000", "162740.004000", "162740.006000", "162819.955000", "162819.957000", "162819.960000", "162819.963000", "162819.965000", "162819.968000", "162819.970000", "162819.973000", "162819.976000", "162819.978000", "162819.981000", "162819.984000", "162819.987000", "162819.989000", "162819.992000", "162819.994000", "162819.997000", "162820.001000", "162820.003000", "162820.006000", "162859.955000", "162859.957000", "162859.960000", "162859.963000", "162859.965000", "162859.968000", "162859.971000", "162859.973000", "162859.993000", "162859.996000", "162859.998000", "162900.002000", "162900.005000", "162900.007000", "162900.010000", "162900.012000", "162900.015000", "162900.018000", "162900.020000", "162900.023000", "162910.320000", "162910.324000", "162910.326000", "162910.329000", "162910.332000", "162910.335000"],
      "InstanceNumber": [1, 2, 3, 4, 5, 6, 7, 8, 9, 10, 11, 12, 13, 14, 15, 16, 17, 18, 19, 20, 21, 22, 23, 24, 25, 26, 27, 28, 29, 30, 31, 32, 33, 34, 35, 36, 37, 38, 39, 40, 41, 42, 43, 44, 45, 46, 47, 48, 49, 50, 51, 52, 53, 54, 55, 56, 57, 58, 59, 60, 61, 62, 63, 64, 65, 66, 67, 68, 69, 70, 71, 72, 73, 74, 75, 76, 77, 78, 79, 80, 81, 82, 83, 84, 85, 86, 87, 88, 89, 90, 91, 92, 93, 94, 95, 96, 97, 98, 99, 100, 101, 102, 103, 104, 105, 106, 107, 108, 109, 110, 111, 112, 113, 114, 115, 116, 117, 118, 119, 120, 121, 122, 123, 124, 125, 126, 127, 128, 129, 130, 131, 132, 133, 134, 135, 136, 137, 138, 139, 140, 141, 142, 143, 144, 145, 146, 147, 148, 149, 150, 151, 152, 153, 154, 155, 156, 157, 158, 159, 160, 161, 162, 163, 164, 165, 166, 167, 168, 169, 170, 171, 172, 173, 174, 175, 176, 177, 178, 179, 180, 181, 182, 183, 184, 185, 186, 187, 188, 189, 190, 191, 192, 193, 194, 195, 196, 197, 198, 199, 200, 201, 202, 203, 204, 205, 206, 207, 208, 209, 210, 211, 212, 213, 214, 215, 216, 217, 218, 219, 220, 221, 222, 223, 224, 225, 226, 227, 228, 229, 230, 231, 232, 233, 234, 235, 236, 237, 238, 239, 240, 241, 242, 243, 244, 245, 246, 247, 248, 249, 250, 251, 252, 253, 254, 255, 256, 257, 258, 259, 260, 261, 262, 263, 264, 265, 266, 267, 268, 269, 270, 271, 272, 273, 274, 275, 276, 277, 278, 279, 280, 281, 282, 283, 284, 285, 286, 287, 288, 289, 290, 291, 292, 293, 294, 295, 296, 297, 298, 299, 300, 301, 302, 303, 304, 305, 306, 307, 308, 309, 310, 311, 312, 313, 314, 315, 316, 317, 318, 319, 320, 321, 322, 323, 324, 325, 326, 327, 328, 329, 330, 331, 332, 333, 334, 335, 336, 337, 338, 339, 340, 341],
      "LargestImagePixelValue": [1719, 1754, 2283, 1960, 1686, 3344, 1751, 1727, 2049, 1713, 1693, 1731, 2358, 1689, 1713, 1696, 2599, 2558, 1679, 1689, 1708, 1668, 1782, 2437, 3165, 2257, 1703, 1953, 1689, 1700, 2460, 1919, 1812, 1996, 2042, 2423, 2613, 1734, 2362, 3241, 1740, 1670, 1684, 1745, 2419, 2135, 2789, 1776, 1711, 1691, 1666, 1750, 1697, 1686, 2175, 1706, 1695, 1847, 1692, 1694, 1696, 2011, 1736, 2940, 2352, 1665, 1752, 1704, 1751, 1681, 2683, 3199, 1839, 1733, 1716, 1700, 2411, 2269, 1714, 1698, 1721, 1879, 2492, 1755, 1774, 1714, 1779, 1769, 1756, 1749, 1735, 2861, 2308, 1725, 2412, 1699, 1669, 1722, 2320, 2238, 2691, 2537, 1709, 1673, 1725, 2367, 1780, 1657, 2361, 1782, 1730, 1692, 2329, 1776, 1673, 2255, 1805, 1700, 1707, 2255, 2477, 1709, 2177, 2027, 2966, 1966, 1735, 1694, 1683, 2312, 1929, 1852, 1730, 1773, 2430, 2916, 1789, 1684, 1833, 2876, 1711, 2027, 1970, 1696, 2191, 1759, 2602, 2490, 3192, 3135, 2477, 1725, 1895, 1702, 2460, 1704, 1689, 1696, 2395, 1684, 2362, 1704, 1673, 2270, 2742, 1849, 1704, 1825, 3358, 2129, 3351, 2131, 1880, 1785, 1686, 1702, 2001, 2073, 1813, 1772, 1701, 1686, 1737, 1717, 2029, 3096, 2076, 1725, 1674, 1682, 1706, 2781, 2270, 1907, 1715, 1728, 1696, 1687, 1696, 1712, 2152, 2148, 2474, 1847, 1784, 1703, 3202, 1721, 1681, 2558, 1697, 1697, 2028, 1705, 1733, 2428, 1705, 1681, 2116, 2031, 1688, 2349, 1860, 1705, 1981, 2706, 3105, 1930, 1686, 1958, 1693, 3141, 1704, 1691, 1989, 2230, 1816, 1683, 1796, 1735, 2428, 1730, 1854, 1714, 1698, 1711, 1804, 1860, 2709, 1810, 1694, 1703, 1724, 2268, 2592, 1693, 1718, 1922, 2178, 1669, 1732, 2419, 1689, 1701, 2247, 2960, 1694, 2058, 1733, 1749, 1682, 1722, 1727, 1678, 1736, 2193, 3087, 2123, 1762, 1668, 1674, 1686, 1696, 1710, 2841, 1719, 3391, 2476, 1707, 1716, 1715, 1683, 1741, 1680, 2278, 2585, 1863, 1805, 1735, 1707, 1701, 1716, 1706, 1725, 2594, 1738, 1677, 1730, 1695, 1727, 2679, 3320, 1742, 1842, 2005, 1693, 1953, 1915, 3056, 2034, 1714, 1694, 2439, 1682, 1700, 2034, 1761, 2356, 1703, 1724, 2393, 1689, 1672, 1833, 2936, 3019, 1698, 1692, 1675, 2541, 1733],
