{
  "AcquisitionMatrixPE": 70,
  "AcquisitionNumber": 1,
  "AcquisitionTime": "15:41:12.977500",
  "BandwidthPerPixelPhaseEncode": 51.948,
  "BaseResolution": 70,
  "BodyPartExamined": "HEAD",
  "CoilCombinationMethod": "Sum of Squares",
  "ConsistencyInfo": "N4_VE11C_LATEST_20160120",
  "ConversionSoftware": "dcm2niix",
  "ConversionSoftwareVersion": "v1.0.20220720",
  "DerivedVendorReportedEchoSpacing": 0.000550001,
  "DeviceSerialNumber": "66061",
  "DwellTime": 3.3e-06,
  "EchoTime": 0.022,
  "EchoTrainLength": 35,
  "EffectiveEchoSpacing": 0.000275,
  "FlipAngle": 90,
  "HeudiconvVersion": "1.1.1",
  "ImageOrientationPatientDICOM": [0.999852, 0.00435695, 0.016637, -0.00122155, 0.982926, -0.183999],
  "ImageOrientationText": "Tra>Cor(-10.6)>Sag(1.0)",
  "ImageType": [
    "ORIGINAL",
    "PRIMARY",
    "M",
    "ND",
    "NORM",
    "MOSAIC"
],
  "ImagingFrequency": 123.254,
  "InPlanePhaseEncodingDirectionDICOM": "COL",
  "InstitutionAddress": "Street StreetNo,City/1c4204/,District,KR,ZIP",
  "InstitutionName": "SKKU",
  "InstitutionalDepartmentName": "Department",
  "MRAcquisitionType": "2D",
  "MagneticFieldStrength": 3,
  "Manufacturer": "Siemens",
  "ManufacturersModelName": "Prisma",
  "MatrixCoilMode": "GRAPPA",
  "Modality": "MR",
  "NonlinearGradientCorrection": false,
  "ParallelReductionFactorInPlane": 2,
  "PartialFourier": 1,
  "PatientPosition": "HFS",
  "PercentPhaseFOV": 100,
  "PercentSampling": 100,
  "PhaseEncodingDirection": "j-",
  "PhaseEncodingSteps": 70,
  "PhaseResolution": 1,
  "PixelBandwidth": 2165,
  "ProcedureStepDescription": "Head^PI:Others",
  "ProtocolName": "BOLD_ep2d_3x3x3_dimension1",
  "PulseSequenceDetails": "%SiemensSeq%\\ep2d_pace",
  "ReceiveCoilActiveElements": "HC1-7",
  "ReceiveCoilName": "HeadNeck_64",
  "ReconMatrixPE": 70,
  "RefLinesPE": 24,
  "RepetitionTime": 2,
  "SAR": 0.133431,
  "ScanOptions": "FS",
  "ScanningSequence": "EP",
  "SequenceName": "*epfid2d1_70",
  "SequenceVariant": "SK",
  "SeriesDescription": "BOLD_ep2d_3x3x3_dimension1",
  "SeriesNumber": 4,
  "ShimSetting": [5057, 3714, 4459, 355, -105, -40, -25, 20],
  "SliceThickness": 3,
  "SliceTiming": [0.99, 0, 1.0375, 0.0475, 1.085, 0.095, 1.1325, 0.1425, 1.18, 0.19, 1.2275, 0.2375, 1.2725, 0.285, 1.32, 0.33, 1.3675, 0.3775, 1.415, 0.425, 1.4625, 0.4725, 1.51, 0.52, 1.5575, 0.5675, 1.6025, 0.615, 1.65, 0.66, 1.6975, 0.7075, 1.745, 0.755, 1.7925, 0.8025, 1.84, 0.85, 1.8875, 0.8975, 1.9325, 0.9425],
  "SoftwareVersions": "syngo MR E11",
  "SpacingBetweenSlices": 3,
  "StationName": "AWP66061",
  "TaskName": "dimension",
  "TotalReadoutTime": 0.018975,
  "TxRefAmp": 238.289,
  "dcmmeta_affine": [
    [-2.999556303024292, -0.003664650022983551, 0.05146374553442001, 104.71231842041016],
    [-0.013070836663246155, 2.948777198791504, -0.5518540740013123, -90.89176177978516],
    [0.04991092160344124, 0.551996648311615, 2.948357105255127, -63.412532806396484],
    [0.0, 0.0, 0.0, 1.0]
],
  "dcmmeta_reorient_transform": [
    [0.0, -1.0, 0.0, 69.0],
    [1.0, 0.0, 0.0, 0.0],
    [0.0, 0.0, -1.0, 41.0],
    [0.0, 0.0, 0.0, 1.0]
],
  "dcmmeta_shape": [70, 70, 42, 437],
  "dcmmeta_slice_dim": 2,
  "dcmmeta_version": 0.6,
  "global": {
    "const": {
      "AcquisitionMatrix": [70, 0, 0, 70],
      "AngioFlag": "N",
      "BitsAllocated": 16,
      "BitsStored": 12,
      "BodyPartExamined": "HEAD",
      "Columns": 490,
      "EchoNumbers": 1,
      "EchoTime": 22.0,
      "EchoTrainLength": 35,
      "FlipAngle": 90.0,
      "HighBit": 11,
      "ImageOrientationPatient": [0.99985210313169, 0.00435694568999, 0.01663697350426, -0.0012215499753, 0.9829256933499, -0.1839988836061],
      "ImagePositionPatient": [-735.70671781665, -711.93590371867, 200.99587483547],
      "ImageType": [
        "ORIGINAL",
        "PRIMARY",
        "M",
        "ND",
        "NORM",
        "MOSAIC"
],
      "ImagedNucleus": "1H",
      "ImagingFrequency": 123.254453,
      "InPlanePhaseEncodingDirection": "COL",
      "MRAcquisitionType": "2D",
      "MagneticFieldStrength": 3.0,
      "Manufacturer": "SIEMENS",
      "ManufacturerModelName": "Prisma",
      "Modality": "MR",
      "NumberOfAverages": 1.0,
      "NumberOfPhaseEncodingSteps": 70,
      "PercentPhaseFieldOfView": 100.0,
      "PercentSampling": 100.0,
      "PerformedProcedureStepStartTime": "153550.429000",
      "PhotometricInterpretation": "MONOCHROME2",
      "PixelBandwidth": 2165.0,
      "PixelRepresentation": 0,
      "PixelSpacing": [3.0, 3.0],
      "ProtocolName": "BOLD_ep2d_3x3x3_dimension1",
      "RepetitionTime": 2000.0,
      "Rows": 490,
      "SAR": 0.13343102240865,
      "SamplesPerPixel": 1,
      "ScanOptions": "FS",
      "ScanningSequence": "EP",
      "SequenceName": "*epfid2d1_70",
      "SequenceVariant": "SK",
      "SeriesDescription": "BOLD_ep2d_3x3x3_dimension1",
      "SeriesNumber": 4,
      "SeriesTime": "154201.011000",
      "SliceLocation": 79.195032322184,
      "SliceThickness": 3.0,
      "SmallestImagePixelValue": 0,
      "SoftwareVersions": "syngo MR E11",
      "SpacingBetweenSlices": 3.0000000672662,
      "SpecificCharacterSet": "ISO_IR 100",
      "StudyID": "1",
      "StudyTime": "153550.363000",
      "TransmitCoilName": "Body",
      "VariableFlipAngleFlag": "N",
      "WindowCenterWidthExplanation": "Algo1",
      "dBdt": 0.0},
    "slices": {}
  },
  "time": {
    "samples": {
      "AcquisitionNumber": [1, 2, 3, 4, 5, 6, 7, 8, 9, 10, 11, 12, 13, 14, 15, 16, 17, 18, 19, 20, 21, 22, 23, 24, 25, 26, 27, 28, 29, 30, 31, 32, 33, 34, 35, 36, 37, 38, 39, 40, 41, 42, 43, 44, 45, 46, 47, 48, 49, 50, 51, 52, 53, 54, 55, 56, 57, 58, 59, 60, 61, 62, 63, 64, 65, 66, 67, 68, 69, 70, 71, 72, 73, 74, 75, 76, 77, 78, 79, 80, 81, 82, 83, 84, 85, 86, 87, 88, 89, 90, 91, 92, 93, 94, 95, 96, 97, 98, 99, 100, 101, 102, 103, 104, 105, 106, 107, 108, 109, 110, 111, 112, 113, 114, 115, 116, 117, 118, 119, 120, 121, 122, 123, 124, 125, 126, 127, 128, 129, 130, 131, 132, 133, 134, 135, 136, 137, 138, 139, 140, 141, 142, 143, 144, 145, 146, 147, 148, 149, 150, 151, 152, 153, 154, 155, 156, 157, 158, 159, 160, 161, 162, 163, 164, 165, 166, 167, 168, 169, 170, 171, 172, 173, 174, 175, 176, 177, 178, 179, 180, 181, 182, 183, 184, 185, 186, 187, 188, 189, 190, 191, 192, 193, 194, 195, 196, 197, 198, 199, 200, 201, 202, 203, 204, 205, 206, 207, 208, 209, 210, 211, 212, 213, 214, 215, 216, 217, 218, 219, 220, 221, 222, 223, 224, 225, 226, 227, 228, 229, 230, 231, 232, 233, 234, 235, 236, 237, 238, 239, 240, 241, 242, 243, 244, 245, 246, 247, 248, 249, 250, 251, 252, 253, 254, 255, 256, 257, 258, 259, 260, 261, 262, 263, 264, 265, 266, 267, 268, 269, 270, 271, 272, 273, 274, 275, 276, 277, 278, 279, 280, 281, 282, 283, 284, 285, 286, 287, 288, 289, 290, 291, 292, 293, 294, 295, 296, 297, 298, 299, 300, 301, 302, 303, 304, 305, 306, 307, 308, 309, 310, 311, 312, 313, 314, 315, 316, 317, 318, 319, 320, 321, 322, 323, 324, 325, 326, 327, 328, 329, 330, 331, 332, 333, 334, 335, 336, 337, 338, 339, 340, 341, 342, 343, 344, 345, 346, 347, 348, 349, 350, 351, 352, 353, 354, 355, 356, 357, 358, 359, 360, 361, 362, 363, 364, 365, 366, 367, 368, 369, 370, 371, 372, 373, 374, 375, 376, 377, 378, 379, 380, 381, 382, 383, 384, 385, 386, 387, 388, 389, 390, 391, 392, 393, 394, 395, 396, 397, 398, 399, 400, 401, 402, 403, 404, 405, 406, 407, 408, 409, 410, 411, 412, 413, 414, 415, 416, 417, 418, 419, 420, 421, 422, 423, 424, 425, 426, 427, 428, 429, 430, 431, 432, 433, 434, 435, 436, 437],
      "AcquisitionTime": ["154112.977500", "154114.977500", "154116.977500", "154118.977500", "154120.977500", "154122.977500", "154124.977500", "154126.977500", "154128.977500", "154130.977500", "154132.977500", "154134.977500", "154136.977500", "154138.977500", "154140.977500", "154142.977500", "154144.977500", "154146.977500", "154148.977500", "154150.977500", "154152.977500", "154154.977500", "154156.977500", "154158.977500", "154200.977500", "154202.977500", "154204.977500", "154206.977500", "154208.977500", "154210.977500", "154212.977500", "154214.977500", "154216.977500", "154218.977500", "154220.977500", "154222.977500", "154224.977500", "154226.977500", "154228.977500", "154230.977500", "154232.977500", "154234.977500", "154236.977500", "154238.977500", "154240.977500", "154242.977500", "154244.977500", "154246.977500", "154248.977500", "154250.977500", "154252.977500", "154254.977500", "154256.977500", "154258.977500", "154300.977500", "154302.977500", "154304.977500", "154306.977500", "154308.977500", "154310.977500", "154312.977500", "154314.977500", "154316.977500", "154318.977500", "154320.977500", "154322.977500", "154324.977500", "154326.977500", "154328.977500", "154330.977500", "154332.977500", "154334.977500", "154336.977500", "154338.977500", "154340.977500", "154342.977500", "154344.977500", "154346.977500", "154348.977500", "154350.977500", "154352.977500", "154354.977500", "154356.977500", "154358.977500", "154400.977500", "154402.977500", "154404.977500", "154406.977500", "154408.977500", "154410.977500", "154412.977500", "154414.977500", "154416.977500", "154418.977500", "154420.977500", "154422.977500", "154424.977500", "154426.977500", "154428.977500", "154430.977500", "154432.977500", "154434.977500", "154436.977500", "154438.977500", "154440.977500", "154442.977500", "154444.977500", "154446.977500", "154448.977500", "154450.977500", "154452.977500", "154454.977500", "154456.977500", "154458.977500", "154500.977500", "154502.977500", "154504.977500", "154506.977500", "154508.977500", "154510.977500", "154512.977500", "154514.977500", "154516.977500", "154518.977500", "154520.977500", "154522.977500", "154524.977500", "154526.977500", "154528.977500", "154530.977500", "154532.977500", "154534.977500", "154536.977500", "154538.977500", "154540.977500", "154542.977500", "154544.977500", "154546.977500", "154548.977500", "154550.977500", "154552.977500", "154554.977500", "154556.977500", "154558.977500", "154600.977500", "154602.977500", "154604.977500", "154606.977500", "154608.977500", "154610.977500", "154612.977500", "154614.977500", "154616.977500", "154618.977500", "154620.977500", "154622.977500", "154624.977500", "154626.977500", "154628.977500", "154630.977500", "154632.977500", "154634.977500", "154636.977500", "154638.977500", "154640.977500", "154642.977500", "154644.977500", "154646.977500", "154648.977500", "154650.977500", "154652.977500", "154654.977500", "154656.977500", "154658.977500", "154700.977500", "154702.977500", "154704.977500", "154706.977500", "154708.977500", "154710.977500", "154712.977500", "154714.977500", "154716.977500", "154718.977500", "154720.977500", "154722.977500", "154724.977500", "154726.977500", "154728.977500", "154730.977500", "154732.977500", "154734.977500", "154736.977500", "154738.977500", "154740.977500", "154742.977500", "154744.977500", "154746.977500", "154748.977500", "154750.977500", "154752.977500", "154754.977500", "154756.977500", "154758.977500", "154800.977500", "154802.977500", "154804.977500", "154806.977500", "154808.977500", "154810.977500", "154812.977500", "154814.977500", "154816.977500", "154818.977500", "154820.977500", "154822.977500", "154824.977500", "154826.977500", "154828.977500", "154830.977500", "154832.977500", "154834.977500", "154836.977500", "154838.977500", "154840.977500", "154842.977500", "154844.977500", "154846.977500", "154848.977500", "154850.977500", "154852.977500", "154854.977500", "154856.977500", "154858.977500", "154900.977500", "154902.977500", "154904.977500", "154906.977500", "154908.977500", "154910.977500", "154912.977500", "154914.977500", "154916.977500", "154918.977500", "154920.977500", "154922.977500", "154924.977500", "154926.977500", "154928.977500", "154930.977500", "154932.977500", "154934.977500", "154936.977500", "154938.977500", "154940.977500", "154942.977500", "154944.977500", "154946.977500", "154948.977500", "154950.977500", "154952.977500", "154954.977500", "154956.977500", "154958.977500", "155000.977500", "155002.977500", "155004.977500", "155006.977500", "155008.977500", "155010.977500", "155012.977500", "155014.977500", "155016.977500", "155018.977500", "155020.977500", "155022.977500", "155024.977500", "155026.977500", "155028.977500", "155030.977500", "155032.977500", "155034.977500", "155036.977500", "155038.977500", "155040.977500", "155042.977500", "155044.977500", "155046.977500", "155048.977500", "155050.977500", "155052.977500", "155054.977500", "155056.977500", "155058.977500", "155100.977500", "155102.977500", "155104.977500", "155106.977500", "155108.977500", "155110.977500", "155112.977500", "155114.977500", "155116.977500", "155118.977500", "155120.977500", "155122.977500", "155124.977500", "155126.977500", "155128.977500", "155130.977500", "155132.977500", "155134.977500", "155136.977500", "155138.977500", "155140.977500", "155142.977500", "155144.977500", "155146.977500", "155148.977500", "155150.977500", "155152.977500", "155154.977500", "155156.977500", "155158.977500", "155200.977500", "155202.977500", "155204.977500", "155206.977500", "155208.977500", "155210.977500", "155212.977500", "155214.977500", "155216.977500", "155218.977500", "155220.977500", "155222.977500", "155224.977500", "155226.977500", "155228.977500", "155230.977500", "155232.977500", "155234.977500", "155236.977500", "155238.977500", "155240.977500", "155242.977500", "155244.977500", "155246.977500", "155248.977500", "155250.977500", "155252.977500", "155254.977500", "155256.977500", "155258.977500", "155300.977500", "155302.977500", "155304.977500", "155306.977500", "155308.977500", "155310.977500", "155312.977500", "155314.977500", "155316.977500", "155318.977500", "155320.977500", "155322.977500", "155324.977500", "155326.977500", "155328.977500", "155330.977500", "155332.977500", "155334.977500", "155336.977500", "155338.977500", "155340.977500", "155342.977500", "155344.977500", "155346.977500", "155348.977500", "155350.977500", "155352.977500", "155354.977500", "155356.977500", "155358.977500", "155400.977500", "155402.977500", "155404.977500", "155406.977500", "155408.977500", "155410.977500", "155412.977500", "155414.977500", "155416.977500", "155418.977500", "155420.977500", "155422.977500", "155424.977500", "155426.977500", "155428.977500", "155430.977500", "155432.977500", "155434.977500", "155436.977500", "155438.977500", "155440.977500", "155442.977500", "155444.977500", "155446.977500", "155448.977500", "155450.977500", "155452.977500", "155454.977500", "155456.977500", "155458.977500", "155500.977500", "155502.977500", "155504.977500", "155506.977500", "155508.977500", "155510.977500", "155512.977500", "155514.977500", "155516.977500", "155518.977500", "155520.977500", "155522.977500", "155524.977500", "155526.977500", "155528.977500", "155530.977500", "155532.977500", "155534.977500", "155536.977500", "155538.977500", "155540.977500", "155542.977500", "155544.977500"],
      "ContentTime": ["154201.014000", "154201.018000", "154201.020000", "154201.023000", "154201.025000", "154201.039000", "154201.041000", "154201.048000", "154201.050000", "154201.053000", "154201.055000", "154201.058000", "154201.061000", "154201.063000", "154201.069000", "154201.072000", "154201.074000", "154201.078000", "154201.080000", "154201.083000", "154201.085000", "154201.088000", "154201.091000", "154201.093000", "154241.009000", "154241.012000", "154241.015000", "154241.018000", "154241.020000", "154241.023000", "154241.026000", "154241.028000", "154241.037000", "154241.040000", "154241.042000", "154241.045000", "154241.048000", "154241.051000", "154241.053000", "154241.056000", "154241.059000", "154241.061000", "154241.064000", "154241.066000", "154321.009000", "154321.020000", "154321.022000", "154321.025000", "154321.028000", "154321.031000", "154321.033000", "154321.036000", "154321.039000", "154321.041000", "154321.044000", "154321.046000", "154321.049000", "154321.052000", "154321.054000", "154321.057000", "154321.060000", "154321.063000", "154321.065000", "154321.068000", "154401.010000", "154401.012000", "154401.015000", "154401.018000", "154401.021000", "154401.023000", "154401.026000", "154401.028000", "154401.031000", "154401.034000", "154401.036000", "154401.039000", "154401.042000", "154401.044000", "154401.047000", "154401.050000", "154401.052000", "154401.055000", "154401.058000", "154401.060000", "154441.009000", "154441.012000", "154441.015000", "154441.018000", "154441.021000", "154441.023000", "154441.026000", "154441.028000", "154441.031000", "154441.034000", "154441.036000", "154441.039000", "154441.042000", "154441.044000", "154441.047000", "154441.050000", "154441.052000", "154441.055000", "154441.058000", "154441.060000", "154521.009000", "154521.012000", "154521.015000", "154521.018000", "154521.020000", "154521.023000", "154521.026000", "154521.028000", "154521.031000", "154521.034000", "154521.036000", "154521.039000", "154521.042000", "154521.044000", "154521.047000", "154521.050000", "154521.053000", "154521.055000", "154521.058000", "154521.060000", "154601.009000", "154601.012000", "154601.015000", "154601.018000", "154601.020000", "154601.023000", "154601.026000", "154601.028000", "154601.031000", "154601.034000", "154601.036000", "154601.039000", "154601.042000", "154601.044000", "154601.047000", "154601.050000", "154601.052000", "154601.055000", "154601.057000", "154601.060000", "154641.009000", "154641.012000", "154641.015000", "154641.018000", "154641.020000", "154641.023000", "154641.026000", "154641.028000", "154641.031000", "154641.034000", "154641.036000", "154641.039000", "154641.042000", "154641.044000", "154641.047000", "154641.050000", "154641.053000", "154641.055000", "154641.058000", "154641.067000", "154721.010000", "154721.012000", "154721.015000", "154721.018000", "154721.021000", "154721.023000", "154721.026000", "154721.029000", "154721.031000", "154721.034000", "154721.037000", "154721.039000", "154721.042000", "154721.045000", "154721.047000", "154721.050000", "154721.052000", "154721.055000", "154721.058000", "154721.060000", "154801.009000", "154801.012000", "154801.015000", "154801.018000", "154801.027000", "154801.030000", "154801.032000", "154801.035000", "154801.038000", "154801.040000", "154801.043000", "154801.046000", "154801.048000", "154801.051000", "154801.054000", "154801.056000", "154801.059000", "154801.062000", "154801.064000", "154801.067000", "154841.009000", "154841.012000", "154841.015000", "154841.018000", "154841.020000", "154841.023000", "154841.026000", "154841.028000", "154841.031000", "154841.034000", "154841.036000", "154841.039000", "154841.042000", "154841.044000", "154841.047000", "154841.050000", "154841.052000", "154841.055000", "154841.058000", "154841.060000", "154901.010000", "154901.012000", "154901.015000", "154901.018000", "154901.020000", "154901.023000", "154901.026000", "154901.028000", "154901.031000", "154901.034000", "154941.010000", "154941.012000", "154941.015000", "154941.018000", "154941.021000", "154941.023000", "154941.026000", "154941.029000", "154941.031000", "154941.034000", "154941.037000", "154941.039000", "154941.042000", "154941.045000", "154941.047000", "154941.050000", "154941.053000", "154941.055000", "154941.058000", "154941.061000", "155021.010000", "155021.012000", "155021.015000", "155021.018000", "155021.021000", "155021.023000", "155021.026000", "155021.029000", "155021.031000", "155021.034000", "155021.037000", "155021.039000", "155021.042000", "155021.044000", "155021.047000", "155021.057000", "155021.060000", "155021.062000", "155021.065000", "155021.068000", "155101.010000", "155101.012000", "155101.015000", "155101.018000", "155101.021000", "155101.023000", "155101.026000", "155101.029000", "155101.031000", "155101.034000", "155101.037000", "155101.039000", "155101.042000", "155101.045000", "155101.047000", "155101.050000", "155101.053000", "155101.055000", "155101.058000", "155101.061000", "155141.010000", "155141.012000", "155141.015000", "155141.018000", "155141.021000", "155141.023000", "155141.026000", "155141.029000", "155141.031000", "155141.034000", "155141.037000", "155141.039000", "155141.042000", "155141.045000", "155141.047000", "155141.050000", "155141.053000", "155141.055000", "155141.058000", "155141.061000", "155221.009000", "155221.012000", "155221.015000", "155221.018000", "155221.020000", "155221.023000", "155221.026000", "155221.029000", "155221.031000", "155221.034000", "155221.037000", "155221.039000", "155221.042000", "155221.044000", "155221.047000", "155221.050000", "155221.052000", "155221.055000", "155221.058000", "155221.060000", "155301.010000", "155301.012000", "155301.015000", "155301.028000", "155301.031000", "155301.033000", "155301.036000", "155301.039000", "155301.041000", "155301.044000", "155301.047000", "155301.049000", "155301.052000", "155301.055000", "155301.058000", "155301.060000", "155301.063000", "155301.065000", "155301.068000", "155301.071000", "155341.010000", "155341.012000", "155341.015000", "155341.018000", "155341.021000", "155341.023000", "155341.026000", "155341.029000", "155341.031000", "155341.034000", "155341.037000", "155341.039000", "155341.042000", "155341.044000", "155341.047000", "155341.050000", "155341.052000", "155341.055000", "155341.058000", "155341.061000", "155421.010000", "155421.013000", "155421.016000", "155421.018000", "155421.021000", "155421.023000", "155421.026000", "155421.029000", "155421.031000", "155421.034000", "155421.037000", "155421.040000", "155421.042000", "155421.045000", "155421.048000", "155421.050000", "155421.053000", "155421.056000", "155421.059000", "155421.061000", "155501.010000", "155501.013000", "155501.016000", "155501.018000", "155501.021000", "155501.023000", "155501.026000", "155501.029000", "155501.031000", "155501.034000", "155501.037000", "155501.040000", "155501.042000", "155501.045000", "155501.062000", "155501.065000", "155501.067000", "155501.070000", "155501.076000", "155501.079000", "155541.010000", "155541.012000", "155541.015000", "155541.018000", "155541.021000", "155541.023000", "155541.026000", "155541.029000", "155541.031000", "155541.034000", "155541.037000", "155541.040000", "155541.042000", "155541.045000", "155541.048000", "155541.050000", "155541.053000", "155541.056000", "155541.058000", "155541.061000", "155546.109000", "155546.112000", "155546.114000"],
      "InstanceCreationTime": ["154201.014000", "154201.018000", "154201.020000", "154201.023000", "154201.025000", "154201.039000", "154201.041000", "154201.048000", "154201.050000", "154201.053000", "154201.055000", "154201.058000", "154201.061000", "154201.063000", "154201.069000", "154201.072000", "154201.074000", "154201.078000", "154201.080000", "154201.083000", "154201.085000", "154201.088000", "154201.091000", "154201.093000", "154241.009000", "154241.012000", "154241.015000", "154241.018000", "154241.020000", "154241.023000", "154241.026000", "154241.028000", "154241.037000", "154241.040000", "154241.042000", "154241.045000", "154241.048000", "154241.051000", "154241.053000", "154241.056000", "154241.059000", "154241.061000", "154241.064000", "154241.066000", "154321.009000", "154321.020000", "154321.022000", "154321.025000", "154321.028000", "154321.031000", "154321.033000", "154321.036000", "154321.039000", "154321.041000", "154321.044000", "154321.046000", "154321.049000", "154321.052000", "154321.054000", "154321.057000", "154321.060000", "154321.063000", "154321.065000", "154321.068000", "154401.010000", "154401.012000", "154401.015000", "154401.018000", "154401.021000", "154401.023000", "154401.026000", "154401.028000", "154401.031000", "154401.034000", "154401.036000", "154401.039000", "154401.042000", "154401.044000", "154401.047000", "154401.050000", "154401.052000", "154401.055000", "154401.058000", "154401.060000", "154441.009000", "154441.012000", "154441.015000", "154441.018000", "154441.021000", "154441.023000", "154441.026000", "154441.028000", "154441.031000", "154441.034000", "154441.036000", "154441.039000", "154441.042000", "154441.044000", "154441.047000", "154441.050000", "154441.052000", "154441.055000", "154441.058000", "154441.060000", "154521.009000", "154521.012000", "154521.015000", "154521.018000", "154521.020000", "154521.023000", "154521.026000", "154521.028000", "154521.031000", "154521.034000", "154521.036000", "154521.039000", "154521.042000", "154521.044000", "154521.047000", "154521.050000", "154521.053000", "154521.055000", "154521.058000", "154521.060000", "154601.009000", "154601.012000", "154601.015000", "154601.018000", "154601.020000", "154601.023000", "154601.026000", "154601.028000", "154601.031000", "154601.034000", "154601.036000", "154601.039000", "154601.042000", "154601.044000", "154601.047000", "154601.050000", "154601.052000", "154601.055000", "154601.057000", "154601.060000", "154641.009000", "154641.012000", "154641.015000", "154641.018000", "154641.020000", "154641.023000", "154641.026000", "154641.028000", "154641.031000", "154641.034000", "154641.036000", "154641.039000", "154641.042000", "154641.044000", "154641.047000", "154641.050000", "154641.053000", "154641.055000", "154641.058000", "154641.067000", "154721.010000", "154721.012000", "154721.015000", "154721.018000", "154721.021000", "154721.023000", "154721.026000", "154721.029000", "154721.031000", "154721.034000", "154721.037000", "154721.039000", "154721.042000", "154721.045000", "154721.047000", "154721.050000", "154721.052000", "154721.055000", "154721.058000", "154721.060000", "154801.009000", "154801.012000", "154801.015000", "154801.018000", "154801.027000", "154801.030000", "154801.032000", "154801.035000", "154801.038000", "154801.040000", "154801.043000", "154801.046000", "154801.048000", "154801.051000", "154801.054000", "154801.056000", "154801.059000", "154801.062000", "154801.064000", "154801.067000", "154841.009000", "154841.012000", "154841.015000", "154841.018000", "154841.020000", "154841.023000", "154841.026000", "154841.028000", "154841.031000", "154841.034000", "154841.036000", "154841.039000", "154841.042000", "154841.044000", "154841.047000", "154841.050000", "154841.052000", "154841.055000", "154841.058000", "154841.060000", "154901.010000", "154901.012000", "154901.015000", "154901.018000", "154901.020000", "154901.023000", "154901.026000", "154901.028000", "154901.031000", "154901.034000", "154941.010000", "154941.012000", "154941.015000", "154941.018000", "154941.021000", "154941.023000", "154941.026000", "154941.029000", "154941.031000", "154941.034000", "154941.037000", "154941.039000", "154941.042000", "154941.045000", "154941.047000", "154941.050000", "154941.053000", "154941.055000", "154941.058000", "154941.061000", "155021.010000", "155021.012000", "155021.015000", "155021.018000", "155021.021000", "155021.023000", "155021.026000", "155021.029000", "155021.031000", "155021.034000", "155021.037000", "155021.039000", "155021.042000", "155021.044000", "155021.047000", "155021.057000", "155021.060000", "155021.062000", "155021.065000", "155021.068000", "155101.010000", "155101.012000", "155101.015000", "155101.018000", "155101.021000", "155101.023000", "155101.026000", "155101.029000", "155101.031000", "155101.034000", "155101.037000", "155101.039000", "155101.042000", "155101.045000", "155101.047000", "155101.050000", "155101.053000", "155101.055000", "155101.058000", "155101.061000", "155141.010000", "155141.012000", "155141.015000", "155141.018000", "155141.021000", "155141.023000", "155141.026000", "155141.029000", "155141.031000", "155141.034000", "155141.037000", "155141.039000", "155141.042000", "155141.045000", "155141.047000", "155141.050000", "155141.053000", "155141.055000", "155141.058000", "155141.061000", "155221.009000", "155221.012000", "155221.015000", "155221.018000", "155221.020000", "155221.023000", "155221.026000", "155221.029000", "155221.031000", "155221.034000", "155221.037000", "155221.039000", "155221.042000", "155221.044000", "155221.047000", "155221.050000", "155221.052000", "155221.055000", "155221.058000", "155221.060000", "155301.010000", "155301.012000", "155301.015000", "155301.028000", "155301.031000", "155301.033000", "155301.036000", "155301.039000", "155301.041000", "155301.044000", "155301.047000", "155301.049000", "155301.052000", "155301.055000", "155301.058000", "155301.060000", "155301.063000", "155301.065000", "155301.068000", "155301.071000", "155341.010000", "155341.012000", "155341.015000", "155341.018000", "155341.021000", "155341.023000", "155341.026000", "155341.029000", "155341.031000", "155341.034000", "155341.037000", "155341.039000", "155341.042000", "155341.044000", "155341.047000", "155341.050000", "155341.052000", "155341.055000", "155341.058000", "155341.061000", "155421.010000", "155421.013000", "155421.016000", "155421.018000", "155421.021000", "155421.023000", "155421.026000", "155421.029000", "155421.031000", "155421.034000", "155421.037000", "155421.040000", "155421.042000", "155421.045000", "155421.048000", "155421.050000", "155421.053000", "155421.056000", "155421.059000", "155421.061000", "155501.010000", "155501.013000", "155501.016000", "155501.018000", "155501.021000", "155501.023000", "155501.026000", "155501.029000", "155501.031000", "155501.034000", "155501.037000", "155501.040000", "155501.042000", "155501.045000", "155501.062000", "155501.065000", "155501.067000", "155501.070000", "155501.076000", "155501.079000", "155541.010000", "155541.012000", "155541.015000", "155541.018000", "155541.021000", "155541.023000", "155541.026000", "155541.029000", "155541.031000", "155541.034000", "155541.037000", "155541.040000", "155541.042000", "155541.045000", "155541.048000", "155541.050000", "155541.053000", "155541.056000", "155541.058000", "155541.061000", "155546.109000", "155546.112000", "155546.114000"],
