{
  "AcquisitionMatrixPE": 70,
  "AcquisitionNumber": 1,
  "AcquisitionTime": "13:47:48.395000",
  "BandwidthPerPixelPhaseEncode": 51.948,
  "BaseResolution": 70,
  "BodyPartExamined": "HEAD",
  "CoilCombinationMethod": "Sum of Squares",
  "ConsistencyInfo": "N4_VE11C_LATEST_20160120",
  "ConversionSoftware": "dcm2niix",
  "ConversionSoftwareVersion": "v1.0.20220720",
  "DerivedVendorReportedEchoSpacing": 0.000550001,
  "DeviceSerialNumber": "66061",
  "DwellTime": 3.3e-06,
  "EchoTime": 0.022,
  "EchoTrainLength": 35,
  "EffectiveEchoSpacing": 0.000275,
  "FlipAngle": 90,
  "HeudiconvVersion": "1.1.1",
  "ImageOrientationPatientDICOM": [0.999411, 0.0075148, 0.033493, -0.00122098, 0.982907, -0.184101],
  "ImageOrientationText": "Tra>Cor(-10.6)>Sag(2.0)",
  "ImageType": [
    "ORIGINAL",
    "PRIMARY",
    "M",
    "ND",
    "NORM",
    "MOSAIC"
],
  "ImagingFrequency": 123.255,
  "InPlanePhaseEncodingDirectionDICOM": "COL",
  "InstitutionAddress": "Street StreetNo,City/1c4204/,District,KR,ZIP",
  "InstitutionName": "SKKU",
  "InstitutionalDepartmentName": "Department",
  "MRAcquisitionType": "2D",
  "MagneticFieldStrength": 3,
  "Manufacturer": "Siemens",
  "ManufacturersModelName": "Prisma",
  "MatrixCoilMode": "GRAPPA",
  "Modality": "MR",
  "NonlinearGradientCorrection": false,
  "ParallelReductionFactorInPlane": 2,
  "PartialFourier": 1,
  "PatientPosition": "HFS",
  "PercentPhaseFOV": 100,
  "PercentSampling": 100,
  "PhaseEncodingDirection": "j-",
  "PhaseEncodingSteps": 70,
  "PhaseResolution": 1,
  "PixelBandwidth": 2165,
  "ProcedureStepDescription": "Head^PI:Others",
  "ProtocolName": "BOLD_ep2d_3x3x3_dimension2",
  "PulseSequenceDetails": "%SiemensSeq%\\ep2d_pace",
  "ReceiveCoilActiveElements": "HC1-7",
  "ReceiveCoilName": "HeadNeck_64",
  "ReconMatrixPE": 70,
  "RefLinesPE": 24,
  "RepetitionTime": 2,
  "SAR": 0.128738,
  "ScanOptions": "FS",
  "ScanningSequence": "EP",
  "SequenceName": "*epfid2d1_70",
  "SequenceVariant": "SK",
  "SeriesDescription": "BOLD_ep2d_3x3x3_dimension2",
  "SeriesNumber": 9,
  "ShimSetting": [5059, 3665, 4237, 314, -61, -286, -208, 3],
  "SliceThickness": 3,
  "SliceTiming": [0.99, 0, 1.035, 0.045, 1.0825, 0.0925, 1.13, 0.14, 1.1775, 0.1875, 1.225, 0.235, 1.2725, 0.2825, 1.32, 0.33, 1.365, 0.375, 1.4125, 0.4225, 1.46, 0.47, 1.5075, 0.5175, 1.555, 0.565, 1.6025, 0.6125, 1.65, 0.66, 1.695, 0.705, 1.7425, 0.7525, 1.79, 0.8, 1.8375, 0.8475, 1.885, 0.895, 1.9325, 0.9425],
  "SoftwareVersions": "syngo MR E11",
  "SpacingBetweenSlices": 3,
  "StationName": "AWP66061",
  "TaskName": "dimension",
  "TotalReadoutTime": 0.018975,
  "TxRefAmp": 216.971,
  "dcmmeta_affine": [
    [-2.998232126235962, -0.003662948962301016, 0.10291185230016708, 107.73483276367188],
    [-0.02254439704120159, 2.9487199783325195, -0.5518540740013123, -87.54619598388672],
    [0.10047893971204758, 0.5523021817207336, 2.947009801864624, -79.022216796875],
    [0.0, 0.0, 0.0, 1.0]
],
  "dcmmeta_reorient_transform": [
    [0.0, -1.0, 0.0, 69.0],
    [1.0, 0.0, 0.0, 0.0],
    [0.0, 0.0, -1.0, 41.0],
    [0.0, 0.0, 0.0, 1.0]
],
  "dcmmeta_shape": [70, 70, 42, 437],
  "dcmmeta_slice_dim": 2,
  "dcmmeta_version": 0.6,
  "global": {
    "const": {
      "AcquisitionMatrix": [70, 0, 0, 70],
      "AngioFlag": "N",
      "BitsAllocated": 16,
      "BitsStored": 12,
      "BodyPartExamined": "HEAD",
      "Columns": 490,
      "EchoNumbers": 1,
      "EchoTime": 22.0,
      "EchoTrainLength": 35,
      "FlipAngle": 90.0,
      "HighBit": 11,
      "ImageOrientationPatient": [0.99941070044505, 0.00751479883169, 0.03349297888285, -0.0012209830174, 0.98290662242241, -0.1841007354647],
      "ImagePositionPatient": [-740.56100000284, -717.25495641376, 174.79692081423],
      "ImageType": [
        "ORIGINAL",
        "PRIMARY",
        "M",
        "ND",
        "NORM",
        "MOSAIC"
],
      "ImagedNucleus": "1H",
      "ImagingFrequency": 123.254651,
      "InPlanePhaseEncodingDirection": "COL",
      "MRAcquisitionType": "2D",
      "MagneticFieldStrength": 3.0,
      "Manufacturer": "SIEMENS",
      "ManufacturerModelName": "Prisma",
      "Modality": "MR",
      "NumberOfAverages": 1.0,
      "NumberOfPhaseEncodingSteps": 70,
      "PercentPhaseFieldOfView": 100.0,
      "PercentSampling": 100.0,
      "PerformedProcedureStepStartTime": "125722.652000",
      "PhotometricInterpretation": "MONOCHROME2",
      "PixelBandwidth": 2165.0,
      "PixelRepresentation": 0,
      "PixelSpacing": [3.0, 3.0],
      "ProtocolName": "BOLD_ep2d_3x3x3_dimension2",
      "RepetitionTime": 2000.0,
      "Rows": 490,
      "SAR": 0.12873793673847,
      "SamplesPerPixel": 1,
      "ScanOptions": "FS",
      "ScanningSequence": "EP",
      "SequenceName": "*epfid2d1_70",
      "SequenceVariant": "SK",
      "SeriesDescription": "BOLD_ep2d_3x3x3_dimension2",
      "SeriesNumber": 9,
      "SeriesTime": "134759.866000",
      "SliceLocation": 65.173557978695,
      "SliceThickness": 3.0,
      "SmallestImagePixelValue": 0,
      "SoftwareVersions": "syngo MR E11",
      "SpacingBetweenSlices": 3.0000000436982,
      "SpecificCharacterSet": "ISO_IR 100",
      "StudyID": "1",
      "StudyTime": "125722.592000",
      "TransmitCoilName": "Body",
      "VariableFlipAngleFlag": "N",
      "WindowCenterWidthExplanation": "Algo1",
      "dBdt": 0.0},
    "slices": {}
  },
  "time": {
    "samples": {
      "AcquisitionNumber": [1, 2, 3, 4, 5, 6, 7, 8, 9, 10, 11, 12, 13, 14, 15, 16, 17, 18, 19, 20, 21, 22, 23, 24, 25, 26, 27, 28, 29, 30, 31, 32, 33, 34, 35, 36, 37, 38, 39, 40, 41, 42, 43, 44, 45, 46, 47, 48, 49, 50, 51, 52, 53, 54, 55, 56, 57, 58, 59, 60, 61, 62, 63, 64, 65, 66, 67, 68, 69, 70, 71, 72, 73, 74, 75, 76, 77, 78, 79, 80, 81, 82, 83, 84, 85, 86, 87, 88, 89, 90, 91, 92, 93, 94, 95, 96, 97, 98, 99, 100, 101, 102, 103, 104, 105, 106, 107, 108, 109, 110, 111, 112, 113, 114, 115, 116, 117, 118, 119, 120, 121, 122, 123, 124, 125, 126, 127, 128, 129, 130, 131, 132, 133, 134, 135, 136, 137, 138, 139, 140, 141, 142, 143, 144, 145, 146, 147, 148, 149, 150, 151, 152, 153, 154, 155, 156, 157, 158, 159, 160, 161, 162, 163, 164, 165, 166, 167, 168, 169, 170, 171, 172, 173, 174, 175, 176, 177, 178, 179, 180, 181, 182, 183, 184, 185, 186, 187, 188, 189, 190, 191, 192, 193, 194, 195, 196, 197, 198, 199, 200, 201, 202, 203, 204, 205, 206, 207, 208, 209, 210, 211, 212, 213, 214, 215, 216, 217, 218, 219, 220, 221, 222, 223, 224, 225, 226, 227, 228, 229, 230, 231, 232, 233, 234, 235, 236, 237, 238, 239, 240, 241, 242, 243, 244, 245, 246, 247, 248, 249, 250, 251, 252, 253, 254, 255, 256, 257, 258, 259, 260, 261, 262, 263, 264, 265, 266, 267, 268, 269, 270, 271, 272, 273, 274, 275, 276, 277, 278, 279, 280, 281, 282, 283, 284, 285, 286, 287, 288, 289, 290, 291, 292, 293, 294, 295, 296, 297, 298, 299, 300, 301, 302, 303, 304, 305, 306, 307, 308, 309, 310, 311, 312, 313, 314, 315, 316, 317, 318, 319, 320, 321, 322, 323, 324, 325, 326, 327, 328, 329, 330, 331, 332, 333, 334, 335, 336, 337, 338, 339, 340, 341, 342, 343, 344, 345, 346, 347, 348, 349, 350, 351, 352, 353, 354, 355, 356, 357, 358, 359, 360, 361, 362, 363, 364, 365, 366, 367, 368, 369, 370, 371, 372, 373, 374, 375, 376, 377, 378, 379, 380, 381, 382, 383, 384, 385, 386, 387, 388, 389, 390, 391, 392, 393, 394, 395, 396, 397, 398, 399, 400, 401, 402, 403, 404, 405, 406, 407, 408, 409, 410, 411, 412, 413, 414, 415, 416, 417, 418, 419, 420, 421, 422, 423, 424, 425, 426, 427, 428, 429, 430, 431, 432, 433, 434, 435, 436, 437],
      "AcquisitionTime": ["134748.395000", "134750.395000", "134752.395000", "134754.395000", "134756.395000", "134758.395000", "134800.395000", "134802.395000", "134804.395000", "134806.395000", "134808.395000", "134810.395000", "134812.395000", "134814.395000", "134816.395000", "134818.395000", "134820.395000", "134822.395000", "134824.395000", "134826.395000", "134828.395000", "134830.395000", "134832.395000", "134834.395000", "134836.395000", "134838.395000", "134840.395000", "134842.395000", "134844.395000", "134846.395000", "134848.395000", "134850.395000", "134852.395000", "134854.395000", "134856.395000", "134858.395000", "134900.395000", "134902.395000", "134904.395000", "134906.395000", "134908.395000", "134910.395000", "134912.395000", "134914.395000", "134916.395000", "134918.395000", "134920.395000", "134922.395000", "134924.395000", "134926.395000", "134928.395000", "134930.395000", "134932.395000", "134934.395000", "134936.395000", "134938.395000", "134940.395000", "134942.395000", "134944.395000", "134946.395000", "134948.395000", "134950.395000", "134952.395000", "134954.395000", "134956.395000", "134958.395000", "135000.395000", "135002.395000", "135004.395000", "135006.395000", "135008.395000", "135010.395000", "135012.395000", "135014.395000", "135016.395000", "135018.395000", "135020.395000", "135022.395000", "135024.395000", "135026.395000", "135028.395000", "135030.395000", "135032.395000", "135034.395000", "135036.395000", "135038.395000", "135040.395000", "135042.395000", "135044.395000", "135046.395000", "135048.395000", "135050.395000", "135052.395000", "135054.395000", "135056.395000", "135058.395000", "135100.395000", "135102.395000", "135104.395000", "135106.395000", "135108.395000", "135110.395000", "135112.395000", "135114.395000", "135116.395000", "135118.395000", "135120.395000", "135122.395000", "135124.395000", "135126.395000", "135128.395000", "135130.395000", "135132.395000", "135134.395000", "135136.395000", "135138.395000", "135140.395000", "135142.395000", "135144.395000", "135146.395000", "135148.395000", "135150.395000", "135152.395000", "135154.395000", "135156.395000", "135158.395000", "135200.395000", "135202.395000", "135204.395000", "135206.395000", "135208.395000", "135210.395000", "135212.395000", "135214.395000", "135216.395000", "135218.395000", "135220.395000", "135222.395000", "135224.395000", "135226.395000", "135228.395000", "135230.395000", "135232.395000", "135234.395000", "135236.395000", "135238.395000", "135240.395000", "135242.395000", "135244.395000", "135246.395000", "135248.395000", "135250.395000", "135252.395000", "135254.395000", "135256.395000", "135258.395000", "135300.395000", "135302.395000", "135304.395000", "135306.395000", "135308.395000", "135310.395000", "135312.395000", "135314.395000", "135316.395000", "135318.395000", "135320.395000", "135322.395000", "135324.395000", "135326.395000", "135328.395000", "135330.395000", "135332.395000", "135334.395000", "135336.395000", "135338.395000", "135340.395000", "135342.395000", "135344.395000", "135346.395000", "135348.395000", "135350.395000", "135352.395000", "135354.395000", "135356.395000", "135358.395000", "135400.395000", "135402.395000", "135404.395000", "135406.395000", "135408.395000", "135410.395000", "135412.395000", "135414.395000", "135416.395000", "135418.395000", "135420.395000", "135422.395000", "135424.395000", "135426.395000", "135428.395000", "135430.395000", "135432.395000", "135434.395000", "135436.395000", "135438.395000", "135440.395000", "135442.395000", "135444.395000", "135446.395000", "135448.395000", "135450.395000", "135452.395000", "135454.395000", "135456.395000", "135458.395000", "135500.395000", "135502.395000", "135504.395000", "135506.395000", "135508.395000", "135510.395000", "135512.395000", "135514.395000", "135516.395000", "135518.395000", "135520.395000", "135522.395000", "135524.395000", "135526.395000", "135528.395000", "135530.395000", "135532.395000", "135534.395000", "135536.395000", "135538.395000", "135540.395000", "135542.395000", "135544.395000", "135546.395000", "135548.395000", "135550.395000", "135552.395000", "135554.395000", "135556.395000", "135558.395000", "135600.395000", "135602.395000", "135604.395000", "135606.395000", "135608.395000", "135610.395000", "135612.395000", "135614.395000", "135616.395000", "135618.395000", "135620.395000", "135622.395000", "135624.395000", "135626.395000", "135628.395000", "135630.395000", "135632.395000", "135634.395000", "135636.395000", "135638.395000", "135640.395000", "135642.395000", "135644.395000", "135646.395000", "135648.395000", "135650.395000", "135652.395000", "135654.395000", "135656.395000", "135658.395000", "135700.395000", "135702.395000", "135704.395000", "135706.395000", "135708.395000", "135710.395000", "135712.395000", "135714.395000", "135716.395000", "135718.395000", "135720.395000", "135722.395000", "135724.395000", "135726.395000", "135728.395000", "135730.395000", "135732.395000", "135734.395000", "135736.395000", "135738.395000", "135740.395000", "135742.395000", "135744.395000", "135746.395000", "135748.395000", "135750.395000", "135752.395000", "135754.395000", "135756.395000", "135758.395000", "135800.395000", "135802.395000", "135804.395000", "135806.395000", "135808.395000", "135810.395000", "135812.395000", "135814.395000", "135816.395000", "135818.395000", "135820.395000", "135822.395000", "135824.395000", "135826.395000", "135828.395000", "135830.395000", "135832.395000", "135834.395000", "135836.395000", "135838.395000", "135840.395000", "135842.395000", "135844.395000", "135846.395000", "135848.395000", "135850.395000", "135852.395000", "135854.395000", "135856.395000", "135858.395000", "135900.395000", "135902.395000", "135904.395000", "135906.395000", "135908.395000", "135910.395000", "135912.395000", "135914.395000", "135916.395000", "135918.395000", "135920.395000", "135922.395000", "135924.395000", "135926.395000", "135928.395000", "135930.395000", "135932.395000", "135934.395000", "135936.395000", "135938.395000", "135940.395000", "135942.395000", "135944.395000", "135946.395000", "135948.395000", "135950.395000", "135952.395000", "135954.395000", "135956.395000", "135958.395000", "140000.395000", "140002.395000", "140004.395000", "140006.395000", "140008.395000", "140010.395000", "140012.395000", "140014.395000", "140016.395000", "140018.395000", "140020.395000", "140022.395000", "140024.395000", "140026.395000", "140028.395000", "140030.395000", "140032.395000", "140034.395000", "140036.395000", "140038.395000", "140040.395000", "140042.395000", "140044.395000", "140046.395000", "140048.395000", "140050.395000", "140052.395000", "140054.395000", "140056.395000", "140058.395000", "140100.395000", "140102.395000", "140104.395000", "140106.395000", "140108.395000", "140110.395000", "140112.395000", "140114.395000", "140116.395000", "140118.395000", "140120.395000", "140122.395000", "140124.395000", "140126.395000", "140128.395000", "140130.395000", "140132.395000", "140134.395000", "140136.395000", "140138.395000", "140140.395000", "140142.395000", "140144.395000", "140146.395000", "140148.395000", "140150.395000", "140152.395000", "140154.395000", "140156.395000", "140158.395000", "140200.395000", "140202.395000", "140204.395000", "140206.395000", "140208.395000", "140210.395000", "140212.395000", "140214.395000", "140216.395000", "140218.395000", "140220.395000"],
      "ContentTime": ["134759.869000", "134759.877000", "134759.879000", "134759.882000", "134759.885000", "134759.888000", "134839.865000", "134839.868000", "134839.871000", "134839.878000", "134839.888000", "134839.891000", "134839.893000", "134839.896000", "134839.899000", "134839.902000", "134839.905000", "134839.908000", "134839.910000", "134839.913000", "134839.916000", "134839.919000", "134839.921000", "134839.924000", "134839.934000", "134839.937000", "134919.864000", "134919.874000", "134919.877000", "134919.880000", "134919.883000", "134919.885000", "134919.888000", "134919.891000", "134919.894000", "134919.897000", "134919.899000", "134919.902000", "134919.905000", "134919.908000", "134919.910000", "134919.913000", "134919.916000", "134919.919000", "134919.921000", "134919.924000", "134959.864000", "134959.867000", "134959.873000", "134959.876000", "134959.879000", "134959.882000", "134959.885000", "134959.887000", "134959.890000", "134959.893000", "134959.896000", "134959.898000", "134959.901000", "134959.904000", "134959.907000", "134959.910000", "134959.913000", "134959.915000", "134959.918000", "134959.921000", "135039.865000", "135039.873000", "135039.876000", "135039.879000", "135039.882000", "135039.885000", "135039.888000", "135039.890000", "135039.893000", "135039.896000", "135039.899000", "135039.902000", "135039.904000", "135039.907000", "135039.910000", "135039.913000", "135039.915000", "135039.918000", "135039.921000", "135039.924000", "135119.865000", "135119.868000", "135119.871000", "135119.874000", "135119.877000", "135119.880000", "135119.882000", "135119.885000", "135119.888000", "135119.891000", "135119.894000", "135119.896000", "135119.899000", "135119.905000", "135119.907000", "135119.910000", "135119.913000", "135119.916000", "135119.919000", "135119.922000", "135159.864000", "135159.867000", "135159.870000", "135159.872000", "135159.875000", "135159.878000", "135159.881000", "135159.884000", "135159.887000", "135159.889000", "135159.892000", "135159.895000", "135159.898000", "135159.901000", "135159.903000", "135159.906000", "135159.909000", "135159.912000", "135159.914000", "135159.917000", "135239.865000", "135239.868000", "135239.871000", "135239.874000", "135239.876000", "135239.879000", "135239.882000", "135239.885000", "135239.888000", "135239.890000", "135239.893000", "135239.896000", "135239.899000", "135239.902000", "135239.904000", "135239.907000", "135239.910000", "135239.913000", "135239.916000", "135239.918000", "135319.865000", "135319.868000", "135319.871000", "135319.873000", "135319.876000", "135319.879000", "135319.882000", "135319.885000", "135319.887000", "135319.890000", "135319.893000", "135319.896000", "135319.899000", "135319.901000", "135319.904000", "135319.907000", "135319.913000", "135319.916000", "135319.918000", "135319.921000", "135359.864000", "135359.867000", "135359.869000", "135359.872000", "135359.875000", "135359.878000", "135359.881000", "135359.884000", "135359.887000", "135359.889000", "135359.892000", "135359.895000", "135359.898000", "135359.900000", "135359.909000", "135359.912000", "135359.915000", "135359.918000", "135359.920000", "135359.923000", "135439.864000", "135439.867000", "135439.870000", "135439.873000", "135439.875000", "135439.878000", "135439.881000", "135439.884000", "135439.887000", "135439.889000", "135439.892000", "135439.895000", "135439.898000", "135439.901000", "135439.904000", "135439.907000", "135439.909000", "135439.912000", "135439.915000", "135439.918000", "135519.865000", "135519.868000", "135519.871000", "135519.874000", "135519.876000", "135519.879000", "135519.882000", "135519.885000", "135519.887000", "135519.890000", "135519.893000", "135519.896000", "135519.899000", "135519.901000", "135519.904000", "135519.907000", "135519.910000", "135519.913000", "135519.915000", "135519.918000", "135559.865000", "135559.868000", "135559.871000", "135559.874000", "135559.876000", "135559.879000", "135559.882000", "135559.885000", "135559.888000", "135559.890000", "135559.893000", "135559.896000", "135559.899000", "135559.902000", "135559.904000", "135559.907000", "135559.910000", "135559.913000", "135559.916000", "135559.919000", "135639.864000", "135639.867000", "135639.870000", "135639.873000", "135639.875000", "135639.878000", "135639.881000", "135639.884000", "135639.887000", "135639.890000", "135639.892000", "135639.895000", "135639.898000", "135639.901000", "135639.904000", "135639.907000", "135639.910000", "135639.912000", "135639.915000", "135639.918000", "135719.865000", "135719.868000", "135719.871000", "135719.874000", "135719.876000", "135719.879000", "135719.882000", "135719.885000", "135719.888000", "135719.890000", "135719.893000", "135719.896000", "135719.899000", "135719.902000", "135719.905000", "135719.907000", "135719.910000", "135719.913000", "135719.916000", "135719.919000", "135759.865000", "135759.868000", "135759.871000", "135759.874000", "135759.876000", "135759.879000", "135759.882000", "135759.885000", "135759.888000", "135759.890000", "135759.893000", "135759.896000", "135759.899000", "135759.902000", "135759.904000", "135759.907000", "135759.910000", "135759.913000", "135759.916000", "135759.918000", "135839.864000", "135839.867000", "135839.870000", "135839.873000", "135839.875000", "135839.878000", "135839.891000", "135839.894000", "135839.897000", "135839.900000", "135839.903000", "135839.905000", "135839.908000", "135839.911000", "135839.914000", "135839.917000", "135839.920000", "135839.935000", "135839.937000", "135839.940000", "135919.864000", "135919.867000", "135919.870000", "135919.873000", "135919.875000", "135919.878000", "135919.881000", "135919.884000", "135919.887000", "135919.889000", "135919.893000", "135919.896000", "135919.899000", "135919.902000", "135919.905000", "135919.907000", "135919.910000", "135919.913000", "135919.916000", "135919.919000", "135959.865000", "135959.868000", "135959.871000", "135959.874000", "135959.876000", "135959.879000", "135959.882000", "135959.885000", "135959.887000", "135959.890000", "135959.893000", "135959.896000", "135959.899000", "135959.902000", "135959.904000", "135959.907000", "135959.910000", "135959.913000", "135959.916000", "135959.918000", "140039.865000", "140039.868000", "140039.871000", "140039.874000", "140039.877000", "140039.879000", "140039.882000", "140039.885000", "140039.888000", "140039.891000", "140039.893000", "140039.896000", "140039.899000", "140039.902000", "140039.905000", "140039.908000", "140039.910000", "140039.913000", "140039.916000", "140039.919000", "140119.864000", "140119.867000", "140119.870000", "140119.873000", "140119.875000", "140119.878000", "140119.881000", "140119.884000", "140119.887000", "140119.889000", "140119.892000", "140119.895000", "140119.898000", "140119.901000", "140119.904000", "140119.906000", "140119.909000", "140119.912000", "140119.915000", "140119.918000", "140159.865000", "140159.868000", "140159.871000", "140159.874000", "140159.876000", "140159.879000", "140159.882000", "140159.885000", "140159.888000", "140159.890000", "140159.893000", "140159.896000", "140159.899000", "140159.902000", "140159.910000", "140159.913000", "140159.915000", "140159.918000", "140159.921000", "140159.924000", "140221.586000", "140221.589000", "140221.592000", "140221.595000", "140221.598000", "140221.601000", "140221.604000", "140221.606000", "140221.609000", "140221.612000", "140221.615000"],
      "DataSetTrailingPadding": [
        "\u0000\u0000\u0000\u0000\u0000\u0000\u0000\u0000\u0000\u0000\u0000\u0000\u0000\u0000\u0000\u0000\u0000\u0000\u0000\u0000\u0000\u0000\u0000\u0000\u0000\u0000\u0000\u0000\u0000\u0000\u0000\u0000\u0000\u0000\u0000\u0000\u0000\u0000\u0000\u0000\u0000\u0000\u0000\u0000\u0000\u0000\u0000\u0000\u0000\u0000\u0000\u0000\u0000\u0000\u0000\u0000\u0000\u0000\u0000\u0000\u0000\u0000\u0000\u0000\u0000\u0000\u0000\u0000\u0000\u0000\u0000\u0000\u0000\u0000\u0000\u0000\u0000\u0000\u0000\u0000\u0000\u0000\u0000\u0000\u0000\u0000\u0000\u0000\u0000\u0000\u0000\u0000\u0000\u0000\u0000\u0000\u0000\u0000\u0000\u0000\u0000\u0000\u0000\u0000\u0000\u0000\u0000\u0000\u0000\u0000\u0000\u0000\u0000\u0000\u0000\u0000\u0000\u0000\u0000\u0000\u0000\u0000\u0000\u0000\u0000\u0000\u0000\u0000\u0000\u0000\u0000\u0000\u0000\u0000\u0000\u0000\u0000\u0000\u0000\u0000\u0000\u0000\u0000\u0000\u0000\u0000\u0000\u0000\u0000\u0000\u0000\u0000\u0000\u0000\u0000\u0000\u0000\u0000\u0000\u0000\u0000\u0000\u0000\u0000\u0000\u0000\u0000\u0000\u0000\u0000\u0000\u0000\u0000\u0000\u0000\u0000\u0000\u0000\u0000\u0000\u0000\u0000\u0000\u0000\u0000\u0000\u0000\u0000\u0000\u0000\u0000\u0000\u0000\u0000\u0000\u0000\u0000\u0000\u0000\u0000\u0000\u0000\u0000\u0000\u0000\u0000\u0000\u0000\u0000\u0000\u0000\u0000\u0000\u0000\u0000\u0000\u0000\u0000\u0000\u0000\u0000\u0000\u0000\u0000\u0000\u0000\u0000\u0000\u0000\u0000\u0000\u0000\u0000\u0000\u0000\u0000\u0000\u0000\u0000\u0000\u0000\u0000",
        "\u0000\u0000\u0000\u0000\u0000\u0000\u0000\u0000\u0000\u0000\u0000\u0000\u0000\u0000\u0000\u0000\u0000\u0000\u0000\u0000\u0000\u0000\u0000\u0000\u0000\u0000\u0000\u0000\u0000\u0000\u0000\u0000\u0000\u0000\u0000\u0000\u0000\u0000\u0000\u0000\u0000\u0000\u0000\u0000\u0000\u0000\u0000\u0000\u0000\u0000\u0000\u0000\u0000\u0000\u0000\u0000\u0000\u0000\u0000\u0000\u0000\u0000\u0000\u0000\u0000\u0000\u0000\u0000\u0000\u0000\u0000\u0000\u0000\u0000\u0000\u0000\u0000\u0000\u0000\u0000\u0000\u0000\u0000\u0000\u0000\u0000\u0000\u0000\u0000\u0000\u0000\u0000\u0000\u0000\u0000\u0000\u0000\u0000\u0000\u0000\u0000\u0000\u0000\u0000\u0000\u0000\u0000\u0000\u0000\u0000\u0000\u0000\u0000\u0000\u0000\u0000\u0000\u0000\u0000\u0000\u0000\u0000\u0000\u0000\u0000\u0000\u0000\u0000\u0000\u0000\u0000\u0000\u0000\u0000\u0000\u0000\u0000\u0000\u0000\u0000\u0000\u0000\u0000\u0000\u0000\u0000\u0000\u0000\u0000\u0000\u0000\u0000\u0000\u0000\u0000\u0000\u0000\u0000\u0000\u0000\u0000\u0000\u0000\u0000\u0000\u0000\u0000\u0000\u0000\u0000\u0000\u0000\u0000\u0000\u0000\u0000\u0000\u0000\u0000\u0000\u0000\u0000\u0000\u0000\u0000\u0000\u0000\u0000\u0000\u0000\u0000\u0000\u0000\u0000\u0000\u0000\u0000\u0000\u0000\u0000\u0000\u0000\u0000\u0000\u0000\u0000\u0000\u0000\u0000\u0000\u0000\u0000\u0000\u0000\u0000\u0000\u0000\u0000\u0000\u0000\u0000\u0000\u0000\u0000\u0000\u0000\u0000\u0000\u0000\u0000\u0000\u0000\u0000\u0000\u0000\u0000\u0000\u0000\u0000\u0000\u0000\u0000\u0000\u0000",
        "\u0000\u0000\u0000\u0000\u0000\u0000\u0000\u0000\u0000\u0000\u0000\u0000\u0000\u0000\u0000\u0000\u0000\u0000\u0000\u0000\u0000\u0000\u0000\u0000\u0000\u0000\u0000\u0000\u0000\u0000\u0000\u0000\u0000\u0000\u0000\u0000\u0000\u0000\u0000\u0000\u0000\u0000\u0000\u0000\u0000\u0000\u0000\u0000\u0000\u0000\u0000\u0000\u0000\u0000\u0000\u0000\u0000\u0000\u0000\u0000\u0000\u0000\u0000\u0000\u0000\u0000\u0000\u0000\u0000\u0000\u0000\u0000\u0000\u0000\u0000\u0000\u0000\u0000\u0000\u0000\u0000\u0000\u0000\u0000\u0000\u0000\u0000\u0000\u0000\u0000\u0000\u0000\u0000\u0000\u0000\u0000\u0000\u0000\u0000\u0000\u0000\u0000\u0000\u0000\u0000\u0000\u0000\u0000\u0000\u0000\u0000\u0000\u0000\u0000\u0000\u0000\u0000\u0000\u0000\u0000\u0000\u0000\u0000\u0000\u0000\u0000\u0000\u0000\u0000\u0000\u0000\u0000\u0000\u0000\u0000\u0000\u0000\u0000\u0000\u0000\u0000\u0000\u0000\u0000\u0000\u0000\u0000\u0000\u0000\u0000\u0000\u0000\u0000\u0000\u0000\u0000\u0000\u0000\u0000\u0000\u0000\u0000\u0000\u0000\u0000\u0000\u0000\u0000\u0000\u0000\u0000\u0000\u0000\u0000\u0000\u0000\u0000\u0000\u0000\u0000\u0000\u0000\u0000\u0000\u0000\u0000\u0000\u0000\u0000\u0000\u0000\u0000\u0000\u0000\u0000\u0000\u0000\u0000\u0000\u0000\u0000\u0000\u0000\u0000\u0000\u0000\u0000\u0000\u0000\u0000\u0000\u0000\u0000\u0000\u0000\u0000\u0000\u0000\u0000\u0000\u0000\u0000\u0000\u0000\u0000\u0000\u0000\u0000\u0000\u0000\u0000\u0000\u0000\u0000\u0000\u0000\u0000\u0000\u0000\u0000\u0000\u0000\u0000\u0000",
        "\u0000\u0000\u0000\u0000\u0000\u0000\u0000\u0000\u0000\u0000\u0000\u0000\u0000\u0000\u0000\u0000\u0000\u0000\u0000\u0000\u0000\u0000\u0000\u0000\u0000\u0000\u0000\u0000\u0000\u0000\u0000\u0000\u0000\u0000\u0000\u0000\u0000\u0000\u0000\u0000\u0000\u0000\u0000\u0000\u0000\u0000\u0000\u0000\u0000\u0000\u0000\u0000\u0000\u0000\u0000\u0000\u0000\u0000\u0000\u0000\u0000\u0000\u0000\u0000\u0000\u0000\u0000\u0000\u0000\u0000\u0000\u0000\u0000\u0000\u0000\u0000\u0000\u0000\u0000\u0000\u0000\u0000\u0000\u0000\u0000\u0000\u0000\u0000\u0000\u0000\u0000\u0000\u0000\u0000\u0000\u0000\u0000\u0000\u0000\u0000\u0000\u0000\u0000\u0000\u0000\u0000\u0000\u0000\u0000\u0000\u0000\u0000\u0000\u0000\u0000\u0000\u0000\u0000\u0000\u0000\u0000\u0000\u0000\u0000\u0000\u0000\u0000\u0000\u0000\u0000\u0000\u0000\u0000\u0000\u0000\u0000\u0000\u0000\u0000\u0000\u0000\u0000\u0000\u0000\u0000\u0000\u0000\u0000\u0000\u0000\u0000\u0000\u0000\u0000\u0000\u0000\u0000\u0000\u0000\u0000\u0000\u0000\u0000\u0000\u0000\u0000\u0000\u0000\u0000\u0000\u0000\u0000\u0000\u0000\u0000\u0000\u0000\u0000\u0000\u0000\u0000\u0000\u0000\u0000\u0000\u0000\u0000\u0000\u0000\u0000\u0000\u0000\u0000\u0000\u0000\u0000\u0000\u0000\u0000\u0000\u0000\u0000\u0000\u0000\u0000\u0000\u0000\u0000\u0000\u0000\u0000\u0000\u0000\u0000\u0000\u0000\u0000\u0000\u0000\u0000\u0000\u0000\u0000\u0000\u0000\u0000\u0000\u0000\u0000\u0000\u0000\u0000\u0000\u0000\u0000\u0000\u0000\u0000\u0000\u0000\u0000\u0000\u0000\u0000",
        "\u0000\u0000\u0000\u0000\u0000\u0000\u0000\u0000\u0000\u0000\u0000\u0000\u0000\u0000\u0000\u0000\u0000\u0000\u0000\u0000\u0000\u0000\u0000\u0000\u0000\u0000\u0000\u0000\u0000\u0000\u0000\u0000\u0000\u0000\u0000\u0000\u0000\u0000\u0000\u0000\u0000\u0000\u0000\u0000\u0000\u0000\u0000\u0000\u0000\u0000\u0000\u0000\u0000\u0000\u0000\u0000\u0000\u0000\u0000\u0000\u0000\u0000\u0000\u0000\u0000\u0000\u0000\u0000\u0000\u0000\u0000\u0000\u0000\u0000\u0000\u0000\u0000\u0000\u0000\u0000\u0000\u0000\u0000\u0000\u0000\u0000\u0000\u0000\u0000\u0000\u0000\u0000\u0000\u0000\u0000\u0000\u0000\u0000\u0000\u0000\u0000\u0000\u0000\u0000\u0000\u0000\u0000\u0000\u0000\u0000\u0000\u0000\u0000\u0000\u0000\u0000\u0000\u0000\u0000\u0000\u0000\u0000\u0000\u0000\u0000\u0000\u0000\u0000\u0000\u0000\u0000\u0000\u0000\u0000\u0000\u0000\u0000\u0000\u0000\u0000\u0000\u0000\u0000\u0000\u0000\u0000\u0000\u0000\u0000\u0000\u0000\u0000\u0000\u0000\u0000\u0000\u0000\u0000\u0000\u0000\u0000\u0000\u0000\u0000\u0000\u0000\u0000\u0000\u0000\u0000\u0000\u0000\u0000\u0000\u0000\u0000\u0000\u0000\u0000\u0000\u0000\u0000\u0000\u0000\u0000\u0000\u0000\u0000\u0000\u0000\u0000\u0000\u0000\u0000\u0000\u0000\u0000\u0000\u0000\u0000\u0000\u0000\u0000\u0000\u0000\u0000\u0000\u0000\u0000\u0000\u0000\u0000\u0000\u0000\u0000\u0000\u0000\u0000\u0000\u0000\u0000\u0000\u0000\u0000\u0000\u0000\u0000\u0000\u0000\u0000\u0000\u0000\u0000\u0000\u0000\u0000\u0000\u0000\u0000\u0000\u0000\u0000",
