{
  "AcquisitionMatrixPE": 70,
  "AcquisitionNumber": 1,
  "AcquisitionTime": "15:57:40.197500",
  "BandwidthPerPixelPhaseEncode": 51.948,
  "BaseResolution": 70,
  "BodyPartExamined": "HEAD",
  "CoilCombinationMethod": "Sum of Squares",
  "ConsistencyInfo": "N4_VE11C_LATEST_20160120",
  "ConversionSoftware": "dcm2niix",
  "ConversionSoftwareVersion": "v1.0.20220720",
  "DerivedVendorReportedEchoSpacing": 0.000550001,
  "DeviceSerialNumber": "66061",
  "DwellTime": 3.3e-06,
  "EchoTime": 0.022,
  "EchoTrainLength": 35,
  "EffectiveEchoSpacing": 0.000275,
  "FlipAngle": 90,
  "HeudiconvVersion": "1.1.1",
  "ImageOrientationPatientDICOM": [0.999411, 0.0075148, 0.033493, -0.00122098, 0.982907, -0.184101],
  "ImageOrientationText": "Tra>Cor(-10.6)>Sag(2.0)",
  "ImageType": [
    "ORIGINAL",
    "PRIMARY",
    "M",
    "ND",
    "NORM",
    "MOSAIC"
],
  "ImagingFrequency": 123.254,
  "InPlanePhaseEncodingDirectionDICOM": "COL",
  "InstitutionAddress": "Street StreetNo,City/1c4204/,District,KR,ZIP",
  "InstitutionName": "SKKU",
  "InstitutionalDepartmentName": "Department",
  "MRAcquisitionType": "2D",
  "MagneticFieldStrength": 3,
  "Manufacturer": "Siemens",
  "ManufacturersModelName": "Prisma",
  "MatrixCoilMode": "GRAPPA",
  "Modality": "MR",
  "NonlinearGradientCorrection": false,
  "ParallelReductionFactorInPlane": 2,
  "PartialFourier": 1,
  "PatientPosition": "HFS",
  "PercentPhaseFOV": 100,
  "PercentSampling": 100,
  "PhaseEncodingDirection": "j-",
  "PhaseEncodingSteps": 70,
  "PhaseResolution": 1,
  "PixelBandwidth": 2165,
  "ProcedureStepDescription": "Head^PI:Others",
  "ProtocolName": "BOLD_ep2d_3x3x3_response2",
  "PulseSequenceDetails": "%SiemensSeq%\\ep2d_pace",
  "ReceiveCoilActiveElements": "HC1-7",
  "ReceiveCoilName": "HeadNeck_64",
  "ReconMatrixPE": 70,
  "RefLinesPE": 24,
  "RepetitionTime": 2,
  "SAR": 0.140566,
  "ScanOptions": "FS",
  "ScanningSequence": "EP",
  "SequenceName": "*epfid2d1_70",
  "SequenceVariant": "SK",
  "SeriesDescription": "BOLD_ep2d_3x3x3_response2",
  "SeriesNumber": 5,
  "ShimSetting": [5098, 3762, 4338, 306, 51, -10, -167, 43],
  "SliceThickness": 3,
  "SliceTiming": [0.99, 0, 1.0375, 0.0475, 1.0825, 0.0925, 1.13, 0.14, 1.1775, 0.1875, 1.225, 0.235, 1.2725, 0.2825, 1.32, 0.33, 1.3675, 0.3775, 1.4125, 0.4225, 1.46, 0.47, 1.5075, 0.5175, 1.555, 0.565, 1.6025, 0.6125, 1.65, 0.66, 1.6975, 0.7075, 1.7425, 0.7525, 1.79, 0.8, 1.8375, 0.8475, 1.885, 0.895, 1.9325, 0.9425],
  "SoftwareVersions": "syngo MR E11",
  "SpacingBetweenSlices": 3,
  "StationName": "AWP66061",
  "TaskName": "response",
  "TotalReadoutTime": 0.018975,
  "TxRefAmp": 228.445,
  "dcmmeta_affine": [
    [-2.998232126235962, -0.003662948962301016, 0.10291185230016708, 105.32536315917969],
    [-0.02254439704120159, 2.9487199783325195, -0.5518540740013123, -90.55824279785156],
    [0.10047893971204758, 0.5523021817207336, 2.947009801864624, -57.32848358154297],
    [0.0, 0.0, 0.0, 1.0]
],
  "dcmmeta_reorient_transform": [
    [0.0, -1.0, 0.0, 69.0],
    [1.0, 0.0, 0.0, 0.0],
    [0.0, 0.0, -1.0, 41.0],
    [0.0, 0.0, 0.0, 1.0]
],
  "dcmmeta_shape": [70, 70, 42, 341],
  "dcmmeta_slice_dim": 2,
  "dcmmeta_version": 0.6,
  "global": {
    "const": {
      "AcquisitionMatrix": [70, 0, 0, 70],
      "AngioFlag": "N",
      "BitsAllocated": 16,
      "BitsStored": 12,
      "BodyPartExamined": "HEAD",
      "Columns": 490,
      "EchoNumbers": 1,
      "EchoTime": 22.0,
      "EchoTrainLength": 35,
      "FlipAngle": 90.0,
      "HighBit": 11,
      "ImageOrientationPatient": [0.99941070044505, 0.00751479883169, 0.03349297888285, -0.0012209830174, 0.98290662242241, -0.1841007354647],
      "ImagePositionPatient": [-738.15152610681, -714.24290864612, 196.49065402956],
      "ImageType": [
        "ORIGINAL",
        "PRIMARY",
        "M",
        "ND",
        "NORM",
        "MOSAIC"
],
      "ImagedNucleus": "1H",
      "ImagingFrequency": 123.254129,
      "InPlanePhaseEncodingDirection": "COL",
      "MRAcquisitionType": "2D",
      "MagneticFieldStrength": 3.0,
      "Manufacturer": "SIEMENS",
      "ManufacturerModelName": "Prisma",
      "Modality": "MR",
      "NumberOfAverages": 1.0,
      "NumberOfPhaseEncodingSteps": 70,
      "PercentPhaseFieldOfView": 100.0,
      "PercentSampling": 100.0,
      "PerformedProcedureStepStartTime": "153907.958000",
      "PhotometricInterpretation": "MONOCHROME2",
      "PixelBandwidth": 2165.0,
      "PixelRepresentation": 0,
      "PixelSpacing": [3.0, 3.0],
      "ProtocolName": "BOLD_ep2d_3x3x3_response2",
      "RepetitionTime": 2000.0,
      "Rows": 490,
      "SAR": 0.14056582545486,
      "SamplesPerPixel": 1,
      "ScanOptions": "FS",
      "ScanningSequence": "EP",
      "SequenceName": "*epfid2d1_70",
      "SequenceVariant": "SK",
      "SeriesDescription": "BOLD_ep2d_3x3x3_response2",
      "SeriesNumber": 5,
      "SeriesTime": "155820.642000",
      "SliceLocation": 86.955521268104,
      "SliceThickness": 3.0,
      "SmallestImagePixelValue": 0,
      "SoftwareVersions": "syngo MR E11",
      "SpacingBetweenSlices": 3.0000000436234,
      "SpecificCharacterSet": "ISO_IR 100",
      "StudyID": "1",
      "StudyTime": "153907.885000",
      "TransmitCoilName": "Body",
      "VariableFlipAngleFlag": "N",
      "WindowCenterWidthExplanation": "Algo1",
      "dBdt": 0.0},
    "slices": {}
  },
  "time": {
    "samples": {
      "AcquisitionNumber": [1, 2, 3, 4, 5, 6, 7, 8, 9, 10, 11, 12, 13, 14, 15, 16, 17, 18, 19, 20, 21, 22, 23, 24, 25, 26, 27, 28, 29, 30, 31, 32, 33, 34, 35, 36, 37, 38, 39, 40, 41, 42, 43, 44, 45, 46, 47, 48, 49, 50, 51, 52, 53, 54, 55, 56, 57, 58, 59, 60, 61, 62, 63, 64, 65, 66, 67, 68, 69, 70, 71, 72, 73, 74, 75, 76, 77, 78, 79, 80, 81, 82, 83, 84, 85, 86, 87, 88, 89, 90, 91, 92, 93, 94, 95, 96, 97, 98, 99, 100, 101, 102, 103, 104, 105, 106, 107, 108, 109, 110, 111, 112, 113, 114, 115, 116, 117, 118, 119, 120, 121, 122, 123, 124, 125, 126, 127, 128, 129, 130, 131, 132, 133, 134, 135, 136, 137, 138, 139, 140, 141, 142, 143, 144, 145, 146, 147, 148, 149, 150, 151, 152, 153, 154, 155, 156, 157, 158, 159, 160, 161, 162, 163, 164, 165, 166, 167, 168, 169, 170, 171, 172, 173, 174, 175, 176, 177, 178, 179, 180, 181, 182, 183, 184, 185, 186, 187, 188, 189, 190, 191, 192, 193, 194, 195, 196, 197, 198, 199, 200, 201, 202, 203, 204, 205, 206, 207, 208, 209, 210, 211, 212, 213, 214, 215, 216, 217, 218, 219, 220, 221, 222, 223, 224, 225, 226, 227, 228, 229, 230, 231, 232, 233, 234, 235, 236, 237, 238, 239, 240, 241, 242, 243, 244, 245, 246, 247, 248, 249, 250, 251, 252, 253, 254, 255, 256, 257, 258, 259, 260, 261, 262, 263, 264, 265, 266, 267, 268, 269, 270, 271, 272, 273, 274, 275, 276, 277, 278, 279, 280, 281, 282, 283, 284, 285, 286, 287, 288, 289, 290, 291, 292, 293, 294, 295, 296, 297, 298, 299, 300, 301, 302, 303, 304, 305, 306, 307, 308, 309, 310, 311, 312, 313, 314, 315, 316, 317, 318, 319, 320, 321, 322, 323, 324, 325, 326, 327, 328, 329, 330, 331, 332, 333, 334, 335, 336, 337, 338, 339, 340, 341],
      "AcquisitionTime": ["155740.197500", "155742.197500", "155744.197500", "155746.197500", "155748.197500", "155750.197500", "155752.197500", "155754.197500", "155756.197500", "155758.197500", "155800.197500", "155802.197500", "155804.197500", "155806.197500", "155808.197500", "155810.197500", "155812.197500", "155814.197500", "155816.197500", "155818.197500", "155820.197500", "155822.197500", "155824.197500", "155826.197500", "155828.197500", "155830.197500", "155832.197500", "155834.197500", "155836.197500", "155838.197500", "155840.197500", "155842.197500", "155844.197500", "155846.197500", "155848.197500", "155850.197500", "155852.197500", "155854.197500", "155856.197500", "155858.197500", "155900.197500", "155902.197500", "155904.197500", "155906.197500", "155908.197500", "155910.197500", "155912.197500", "155914.197500", "155916.197500", "155918.197500", "155920.197500", "155922.197500", "155924.197500", "155926.197500", "155928.197500", "155930.197500", "155932.197500", "155934.197500", "155936.197500", "155938.197500", "155940.197500", "155942.197500", "155944.197500", "155946.197500", "155948.197500", "155950.197500", "155952.197500", "155954.197500", "155956.197500", "155958.197500", "160000.197500", "160002.197500", "160004.197500", "160006.197500", "160008.197500", "160010.197500", "160012.197500", "160014.197500", "160016.197500", "160018.197500", "160020.197500", "160022.197500", "160024.197500", "160026.197500", "160028.197500", "160030.197500", "160032.197500", "160034.197500", "160036.197500", "160038.197500", "160040.197500", "160042.197500", "160044.197500", "160046.197500", "160048.197500", "160050.197500", "160052.197500", "160054.197500", "160056.197500", "160058.197500", "160100.197500", "160102.197500", "160104.197500", "160106.197500", "160108.197500", "160110.197500", "160112.197500", "160114.197500", "160116.197500", "160118.197500", "160120.197500", "160122.197500", "160124.197500", "160126.197500", "160128.197500", "160130.197500", "160132.197500", "160134.197500", "160136.197500", "160138.197500", "160140.197500", "160142.197500", "160144.197500", "160146.197500", "160148.197500", "160150.197500", "160152.197500", "160154.197500", "160156.197500", "160158.197500", "160200.197500", "160202.197500", "160204.197500", "160206.197500", "160208.197500", "160210.197500", "160212.197500", "160214.197500", "160216.197500", "160218.197500", "160220.197500", "160222.197500", "160224.197500", "160226.197500", "160228.197500", "160230.197500", "160232.197500", "160234.197500", "160236.197500", "160238.197500", "160240.197500", "160242.197500", "160244.197500", "160246.197500", "160248.197500", "160250.197500", "160252.197500", "160254.197500", "160256.197500", "160258.197500", "160300.197500", "160302.197500", "160304.197500", "160306.197500", "160308.197500", "160310.197500", "160312.197500", "160314.197500", "160316.197500", "160318.197500", "160320.197500", "160322.197500", "160324.197500", "160326.197500", "160328.197500", "160330.197500", "160332.197500", "160334.197500", "160336.197500", "160338.197500", "160340.197500", "160342.197500", "160344.197500", "160346.197500", "160348.197500", "160350.197500", "160352.197500", "160354.197500", "160356.197500", "160358.197500", "160400.197500", "160402.197500", "160404.197500", "160406.197500", "160408.197500", "160410.197500", "160412.197500", "160414.197500", "160416.197500", "160418.197500", "160420.197500", "160422.197500", "160424.197500", "160426.197500", "160428.197500", "160430.197500", "160432.197500", "160434.197500", "160436.197500", "160438.197500", "160440.197500", "160442.197500", "160444.197500", "160446.197500", "160448.197500", "160450.197500", "160452.197500", "160454.197500", "160456.197500", "160458.197500", "160500.197500", "160502.197500", "160504.197500", "160506.197500", "160508.197500", "160510.197500", "160512.197500", "160514.197500", "160516.197500", "160518.197500", "160520.197500", "160522.197500", "160524.197500", "160526.197500", "160528.197500", "160530.197500", "160532.197500", "160534.197500", "160536.197500", "160538.197500", "160540.197500", "160542.197500", "160544.197500", "160546.197500", "160548.197500", "160550.197500", "160552.197500", "160554.197500", "160556.197500", "160558.197500", "160600.197500", "160602.197500", "160604.197500", "160606.197500", "160608.197500", "160610.197500", "160612.197500", "160614.197500", "160616.197500", "160618.197500", "160620.197500", "160622.197500", "160624.197500", "160626.197500", "160628.197500", "160630.197500", "160632.197500", "160634.197500", "160636.197500", "160638.197500", "160640.197500", "160642.197500", "160644.197500", "160646.197500", "160648.197500", "160650.197500", "160652.197500", "160654.197500", "160656.197500", "160658.197500", "160700.197500", "160702.197500", "160704.197500", "160706.197500", "160708.197500", "160710.197500", "160712.197500", "160714.197500", "160716.197500", "160718.197500", "160720.197500", "160722.197500", "160724.197500", "160726.197500", "160728.197500", "160730.197500", "160732.197500", "160734.197500", "160736.197500", "160738.197500", "160740.197500", "160742.197500", "160744.197500", "160746.197500", "160748.197500", "160750.197500", "160752.197500", "160754.197500", "160756.197500", "160758.197500", "160800.197500", "160802.197500", "160804.197500", "160806.197500", "160808.197500", "160810.197500", "160812.197500", "160814.197500", "160816.197500", "160818.197500", "160820.197500", "160822.197500", "160824.197500", "160826.197500", "160828.197500", "160830.197500", "160832.197500", "160834.197500", "160836.197500", "160838.197500", "160840.197500", "160842.197500", "160844.197500", "160846.197500", "160848.197500", "160850.197500", "160852.197500", "160854.197500", "160856.197500", "160858.197500", "160900.197500"],
      "ContentTime": ["155820.645000", "155820.649000", "155820.652000", "155820.654000", "155820.667000", "155820.670000", "155820.672000", "155820.675000", "155820.677000", "155820.680000", "155820.683000", "155820.685000", "155820.688000", "155820.690000", "155820.693000", "155820.696000", "155820.698000", "155820.701000", "155820.704000", "155820.706000", "155900.640000", "155900.643000", "155900.645000", "155900.648000", "155900.650000", "155900.653000", "155900.656000", "155900.658000", "155900.661000", "155900.664000", "155900.666000", "155900.669000", "155900.672000", "155900.674000", "155900.677000", "155900.680000", "155900.682000", "155900.685000", "155900.688000", "155900.690000", "155940.641000", "155940.644000", "155940.646000", "155940.649000", "155940.651000", "155940.654000", "155940.657000", "155940.659000", "155940.662000", "155940.665000", "155940.667000", "155940.670000", "155940.680000", "155940.683000", "155940.686000", "155940.688000", "155940.691000", "155940.694000", "155940.696000", "155940.699000", "160020.641000", "160020.644000", "160020.646000", "160020.649000", "160020.652000", "160020.654000", "160020.657000", "160020.660000", "160020.662000", "160020.665000", "160020.668000", "160020.671000", "160020.673000", "160020.676000", "160020.678000", "160020.681000", "160020.684000", "160020.686000", "160020.689000", "160020.692000", "160100.641000", "160100.644000", "160100.646000", "160100.649000", "160100.652000", "160100.654000", "160100.657000", "160100.660000", "160100.662000", "160100.665000", "160100.667000", "160100.670000", "160100.673000", "160100.675000", "160100.678000", "160100.681000", "160100.683000", "160100.686000", "160100.689000", "160100.691000", "160140.641000", "160140.644000", "160140.669000", "160140.672000", "160140.674000", "160140.677000", "160140.680000", "160140.682000", "160140.685000", "160140.688000", "160140.690000", "160140.693000", "160140.705000", "160140.708000", "160140.710000", "160140.713000", "160140.716000", "160140.718000", "160140.721000", "160140.724000", "160220.641000", "160220.644000", "160220.646000", "160220.649000", "160220.652000", "160220.654000", "160220.657000", "160220.660000", "160220.662000", "160220.665000", "160220.668000", "160220.670000", "160220.673000", "160220.676000", "160220.678000", "160220.681000", "160220.684000", "160220.686000", "160220.689000", "160220.692000", "160300.641000", "160300.644000", "160300.646000", "160300.649000", "160300.652000", "160300.654000", "160300.657000", "160300.660000", "160300.662000", "160300.665000", "160300.668000", "160300.670000", "160300.673000", "160300.676000", "160300.678000", "160300.681000", "160300.684000", "160300.686000", "160300.689000", "160300.692000", "160340.640000", "160340.643000", "160340.646000", "160340.648000", "160340.651000", "160340.654000", "160340.656000", "160340.659000", "160340.661000", "160340.664000", "160340.667000", "160340.670000", "160340.672000", "160340.675000", "160340.678000", "160340.680000", "160340.683000", "160340.686000", "160340.688000", "160340.691000", "160420.641000", "160420.644000", "160420.646000", "160420.649000", "160420.652000", "160420.654000", "160420.657000", "160420.660000", "160420.662000", "160420.665000", "160420.668000", "160420.670000", "160420.673000", "160420.676000", "160420.678000", "160420.681000", "160420.684000", "160420.686000", "160420.689000", "160420.692000", "160500.641000", "160500.644000", "160500.646000", "160500.649000", "160500.652000", "160500.655000", "160500.657000", "160500.660000", "160500.663000", "160500.665000", "160500.668000", "160500.671000", "160500.673000", "160500.676000", "160500.678000", "160500.681000", "160500.684000", "160500.686000", "160500.689000", "160500.692000", "160540.640000", "160540.643000", "160540.646000", "160540.648000", "160540.651000", "160540.654000", "160540.656000", "160540.659000", "160540.662000", "160540.664000", "160540.667000", "160540.670000", "160540.672000", "160540.675000", "160540.678000", "160540.680000", "160540.683000", "160540.686000", "160540.688000", "160540.691000", "160620.641000", "160620.644000", "160620.646000", "160620.649000", "160620.651000", "160620.654000", "160620.657000", "160620.660000", "160620.671000", "160620.674000", "160620.677000", "160620.679000", "160620.682000", "160620.685000", "160620.687000", "160620.690000", "160620.693000", "160620.695000", "160620.698000", "160620.701000", "160700.641000", "160700.644000", "160700.646000", "160700.649000", "160700.652000", "160700.654000", "160700.657000", "160700.660000", "160700.662000", "160700.665000", "160700.668000", "160700.670000", "160700.673000", "160700.676000", "160700.678000", "160700.681000", "160700.684000", "160700.686000", "160700.689000", "160700.692000", "160740.641000", "160740.644000", "160740.646000", "160740.649000", "160740.652000", "160740.654000", "160740.657000", "160740.660000", "160740.662000", "160740.665000", "160740.668000", "160740.670000", "160740.673000", "160740.676000", "160740.678000", "160740.681000", "160740.684000", "160740.686000", "160740.689000", "160740.692000", "160820.640000", "160820.643000", "160820.645000", "160820.648000", "160820.651000", "160820.653000", "160820.656000", "160820.659000", "160820.662000", "160820.664000", "160820.667000", "160820.670000", "160820.672000", "160820.675000", "160820.677000", "160820.680000", "160820.683000", "160820.685000", "160820.688000", "160820.691000", "160900.641000", "160900.644000", "160900.646000", "160900.665000", "160900.668000", "160900.671000", "160900.673000", "160900.676000", "160900.679000", "160900.681000", "160900.684000", "160900.687000", "160900.689000", "160900.692000", "160900.695000", "160900.697000", "160900.700000", "160900.703000", "160900.705000", "160900.708000", "160901.309000"],
      "DataSetTrailingPadding": [
        "\u0000\u0000\u0000\u0000\u0000\u0000\u0000\u0000\u0000\u0000\u0000\u0000\u0000\u0000\u0000\u0000\u0000\u0000\u0000\u0000\u0000\u0000\u0000\u0000\u0000\u0000\u0000\u0000\u0000\u0000\u0000\u0000\u0000\u0000\u0000\u0000\u0000\u0000\u0000\u0000\u0000\u0000\u0000\u0000\u0000\u0000\u0000\u0000\u0000\u0000",
        "\u0000\u0000\u0000\u0000\u0000\u0000\u0000\u0000\u0000\u0000\u0000\u0000\u0000\u0000\u0000\u0000\u0000\u0000\u0000\u0000\u0000\u0000\u0000\u0000\u0000\u0000\u0000\u0000\u0000\u0000\u0000\u0000\u0000\u0000\u0000\u0000\u0000\u0000\u0000\u0000\u0000\u0000\u0000\u0000\u0000\u0000\u0000\u0000\u0000\u0000",
        "\u0000\u0000\u0000\u0000\u0000\u0000\u0000\u0000\u0000\u0000\u0000\u0000\u0000\u0000\u0000\u0000\u0000\u0000\u0000\u0000\u0000\u0000\u0000\u0000\u0000\u0000\u0000\u0000\u0000\u0000\u0000\u0000\u0000\u0000\u0000\u0000\u0000\u0000\u0000\u0000\u0000\u0000\u0000\u0000\u0000\u0000\u0000\u0000\u0000\u0000",
        "\u0000\u0000\u0000\u0000\u0000\u0000\u0000\u0000\u0000\u0000\u0000\u0000\u0000\u0000\u0000\u0000\u0000\u0000\u0000\u0000\u0000\u0000\u0000\u0000\u0000\u0000\u0000\u0000\u0000\u0000\u0000\u0000\u0000\u0000\u0000\u0000\u0000\u0000\u0000\u0000\u0000\u0000\u0000\u0000\u0000\u0000\u0000\u0000\u0000\u0000",
        "\u0000\u0000\u0000\u0000\u0000\u0000\u0000\u0000\u0000\u0000\u0000\u0000\u0000\u0000\u0000\u0000\u0000\u0000\u0000\u0000\u0000\u0000\u0000\u0000\u0000\u0000\u0000\u0000\u0000\u0000\u0000\u0000\u0000\u0000\u0000\u0000\u0000\u0000\u0000\u0000\u0000\u0000\u0000\u0000\u0000\u0000\u0000\u0000",
        "\u0000\u0000\u0000\u0000\u0000\u0000\u0000\u0000\u0000\u0000\u0000\u0000\u0000\u0000\u0000\u0000\u0000\u0000\u0000\u0000\u0000\u0000\u0000\u0000\u0000\u0000\u0000\u0000\u0000\u0000\u0000\u0000\u0000\u0000\u0000\u0000\u0000\u0000\u0000\u0000\u0000\u0000\u0000\u0000\u0000\u0000\u0000\u0000",
        "\u0000\u0000\u0000\u0000\u0000\u0000\u0000\u0000\u0000\u0000\u0000\u0000\u0000\u0000\u0000\u0000\u0000\u0000\u0000\u0000\u0000\u0000\u0000\u0000\u0000\u0000\u0000\u0000\u0000\u0000\u0000\u0000\u0000\u0000\u0000\u0000\u0000\u0000\u0000\u0000\u0000\u0000\u0000\u0000\u0000\u0000\u0000\u0000",
        "\u0000\u0000\u0000\u0000\u0000\u0000\u0000\u0000\u0000\u0000\u0000\u0000\u0000\u0000\u0000\u0000\u0000\u0000\u0000\u0000\u0000\u0000\u0000\u0000\u0000\u0000\u0000\u0000\u0000\u0000\u0000\u0000\u0000\u0000\u0000\u0000\u0000\u0000\u0000\u0000\u0000\u0000\u0000\u0000\u0000\u0000\u0000\u0000",
        "\u0000\u0000\u0000\u0000\u0000\u0000\u0000\u0000\u0000\u0000\u0000\u0000\u0000\u0000\u0000\u0000\u0000\u0000\u0000\u0000\u0000\u0000\u0000\u0000\u0000\u0000\u0000\u0000\u0000\u0000\u0000\u0000\u0000\u0000\u0000\u0000\u0000\u0000\u0000\u0000\u0000\u0000\u0000\u0000\u0000\u0000\u0000\u0000",
        "\u0000\u0000\u0000\u0000\u0000\u0000\u0000\u0000\u0000\u0000\u0000\u0000\u0000\u0000\u0000\u0000\u0000\u0000\u0000\u0000\u0000\u0000\u0000\u0000\u0000\u0000\u0000\u0000\u0000\u0000\u0000\u0000\u0000\u0000\u0000\u0000\u0000\u0000\u0000\u0000\u0000\u0000\u0000\u0000\u0000\u0000\u0000\u0000",
        "\u0000\u0000\u0000\u0000\u0000\u0000\u0000\u0000\u0000\u0000\u0000\u0000\u0000\u0000\u0000\u0000\u0000\u0000\u0000\u0000\u0000\u0000\u0000\u0000\u0000\u0000\u0000\u0000\u0000\u0000\u0000\u0000\u0000\u0000\u0000\u0000\u0000\u0000\u0000\u0000\u0000\u0000\u0000\u0000\u0000\u0000\u0000\u0000",
        "\u0000\u0000\u0000\u0000\u0000\u0000\u0000\u0000\u0000\u0000\u0000\u0000\u0000\u0000\u0000\u0000\u0000\u0000\u0000\u0000\u0000\u0000\u0000\u0000\u0000\u0000\u0000\u0000\u0000\u0000\u0000\u0000\u0000\u0000\u0000\u0000\u0000\u0000\u0000\u0000\u0000\u0000\u0000\u0000\u0000\u0000\u0000\u0000",
        "\u0000\u0000\u0000\u0000\u0000\u0000\u0000\u0000\u0000\u0000\u0000\u0000\u0000\u0000\u0000\u0000\u0000\u0000\u0000\u0000\u0000\u0000\u0000\u0000\u0000\u0000\u0000\u0000\u0000\u0000\u0000\u0000\u0000\u0000\u0000\u0000\u0000\u0000\u0000\u0000\u0000\u0000\u0000\u0000\u0000\u0000\u0000\u0000",
        "\u0000\u0000\u0000\u0000\u0000\u0000\u0000\u0000\u0000\u0000\u0000\u0000\u0000\u0000\u0000\u0000\u0000\u0000\u0000\u0000\u0000\u0000\u0000\u0000\u0000\u0000\u0000\u0000\u0000\u0000\u0000\u0000\u0000\u0000\u0000\u0000\u0000\u0000\u0000\u0000\u0000\u0000\u0000\u0000\u0000\u0000\u0000\u0000\u0000\u0000",
        "\u0000\u0000\u0000\u0000\u0000\u0000\u0000\u0000\u0000\u0000\u0000\u0000\u0000\u0000\u0000\u0000\u0000\u0000\u0000\u0000\u0000\u0000\u0000\u0000\u0000\u0000\u0000\u0000\u0000\u0000\u0000\u0000\u0000\u0000\u0000\u0000\u0000\u0000\u0000\u0000\u0000\u0000\u0000\u0000\u0000\u0000\u0000\u0000",
        "\u0000\u0000\u0000\u0000\u0000\u0000\u0000\u0000\u0000\u0000\u0000\u0000\u0000\u0000\u0000\u0000\u0000\u0000\u0000\u0000\u0000\u0000\u0000\u0000\u0000\u0000\u0000\u0000\u0000\u0000\u0000\u0000\u0000\u0000\u0000\u0000\u0000\u0000\u0000\u0000\u0000\u0000\u0000\u0000\u0000\u0000\u0000\u0000",
        "\u0000\u0000\u0000\u0000\u0000\u0000\u0000\u0000\u0000\u0000\u0000\u0000\u0000\u0000\u0000\u0000\u0000\u0000\u0000\u0000\u0000\u0000\u0000\u0000\u0000\u0000\u0000\u0000\u0000\u0000\u0000\u0000\u0000\u0000\u0000\u0000\u0000\u0000\u0000\u0000\u0000\u0000\u0000\u0000\u0000\u0000\u0000\u0000",
        "\u0000\u0000\u0000\u0000\u0000\u0000\u0000\u0000\u0000\u0000\u0000\u0000\u0000\u0000\u0000\u0000\u0000\u0000\u0000\u0000\u0000\u0000\u0000\u0000\u0000\u0000\u0000\u0000\u0000\u0000\u0000\u0000\u0000\u0000\u0000\u0000\u0000\u0000\u0000\u0000\u0000\u0000\u0000\u0000\u0000\u0000\u0000\u0000",
        "\u0000\u0000\u0000\u0000\u0000\u0000\u0000\u0000\u0000\u0000\u0000\u0000\u0000\u0000\u0000\u0000\u0000\u0000\u0000\u0000\u0000\u0000\u0000\u0000\u0000\u0000\u0000\u0000\u0000\u0000\u0000\u0000\u0000\u0000\u0000\u0000\u0000\u0000\u0000\u0000\u0000\u0000\u0000\u0000\u0000\u0000\u0000\u0000",
        "\u0000\u0000\u0000\u0000\u0000\u0000\u0000\u0000\u0000\u0000\u0000\u0000\u0000\u0000\u0000\u0000\u0000\u0000\u0000\u0000\u0000\u0000\u0000\u0000\u0000\u0000\u0000\u0000\u0000\u0000\u0000\u0000\u0000\u0000\u0000\u0000\u0000\u0000\u0000\u0000\u0000\u0000\u0000\u0000\u0000\u0000\u0000\u0000",
        "\u0000\u0000\u0000\u0000\u0000\u0000\u0000\u0000\u0000\u0000\u0000\u0000\u0000\u0000\u0000\u0000\u0000\u0000\u0000\u0000\u0000\u0000\u0000\u0000\u0000\u0000\u0000\u0000\u0000\u0000\u0000\u0000\u0000\u0000\u0000\u0000\u0000\u0000\u0000\u0000\u0000\u0000\u0000\u0000\u0000\u0000\u0000\u0000",
        "\u0000\u0000\u0000\u0000\u0000\u0000\u0000\u0000\u0000\u0000\u0000\u0000\u0000\u0000\u0000\u0000\u0000\u0000\u0000\u0000\u0000\u0000\u0000\u0000\u0000\u0000\u0000\u0000\u0000\u0000\u0000\u0000\u0000\u0000\u0000\u0000\u0000\u0000\u0000\u0000\u0000\u0000\u0000\u0000\u0000\u0000\u0000\u0000",
        "\u0000\u0000\u0000\u0000\u0000\u0000\u0000\u0000\u0000\u0000\u0000\u0000\u0000\u0000\u0000\u0000\u0000\u0000\u0000\u0000\u0000\u0000\u0000\u0000\u0000\u0000\u0000\u0000\u0000\u0000\u0000\u0000\u0000\u0000\u0000\u0000\u0000\u0000\u0000\u0000\u0000\u0000\u0000\u0000\u0000\u0000\u0000\u0000",
        "\u0000\u0000\u0000\u0000\u0000\u0000\u0000\u0000\u0000\u0000\u0000\u0000\u0000\u0000\u0000\u0000\u0000\u0000\u0000\u0000\u0000\u0000\u0000\u0000\u0000\u0000\u0000\u0000\u0000\u0000\u0000\u0000\u0000\u0000\u0000\u0000\u0000\u0000\u0000\u0000\u0000\u0000\u0000\u0000\u0000\u0000\u0000\u0000",
        "\u0000\u0000\u0000\u0000\u0000\u0000\u0000\u0000\u0000\u0000\u0000\u0000\u0000\u0000\u0000\u0000\u0000\u0000\u0000\u0000\u0000\u0000\u0000\u0000\u0000\u0000\u0000\u0000\u0000\u0000\u0000\u0000\u0000\u0000\u0000\u0000\u0000\u0000\u0000\u0000\u0000\u0000\u0000\u0000\u0000\u0000\u0000\u0000\u0000\u0000",
        "\u0000\u0000\u0000\u0000\u0000\u0000\u0000\u0000\u0000\u0000\u0000\u0000\u0000\u0000\u0000\u0000\u0000\u0000\u0000\u0000\u0000\u0000\u0000\u0000\u0000\u0000\u0000\u0000\u0000\u0000\u0000\u0000\u0000\u0000\u0000\u0000\u0000\u0000\u0000\u0000\u0000\u0000\u0000\u0000\u0000\u0000\u0000\u0000",
        "\u0000\u0000\u0000\u0000\u0000\u0000\u0000\u0000\u0000\u0000\u0000\u0000\u0000\u0000\u0000\u0000\u0000\u0000\u0000\u0000\u0000\u0000\u0000\u0000\u0000\u0000\u0000\u0000\u0000\u0000\u0000\u0000\u0000\u0000\u0000\u0000\u0000\u0000\u0000\u0000\u0000\u0000\u0000\u0000\u0000\u0000\u0000\u0000\u0000\u0000",
        "\u0000\u0000\u0000\u0000\u0000\u0000\u0000\u0000\u0000\u0000\u0000\u0000\u0000\u0000\u0000\u0000\u0000\u0000\u0000\u0000\u0000\u0000\u0000\u0000\u0000\u0000\u0000\u0000\u0000\u0000\u0000\u0000\u0000\u0000\u0000\u0000\u0000\u0000\u0000\u0000\u0000\u0000\u0000\u0000\u0000\u0000\u0000\u0000\u0000\u0000",
        "\u0000\u0000\u0000\u0000\u0000\u0000\u0000\u0000\u0000\u0000\u0000\u0000\u0000\u0000\u0000\u0000\u0000\u0000\u0000\u0000\u0000\u0000\u0000\u0000\u0000\u0000\u0000\u0000\u0000\u0000\u0000\u0000\u0000\u0000\u0000\u0000\u0000\u0000\u0000\u0000\u0000\u0000\u0000\u0000\u0000\u0000\u0000\u0000\u0000\u0000",
        "\u0000\u0000\u0000\u0000\u0000\u0000\u0000\u0000\u0000\u0000\u0000\u0000\u0000\u0000\u0000\u0000\u0000\u0000\u0000\u0000\u0000\u0000\u0000\u0000\u0000\u0000\u0000\u0000\u0000\u0000\u0000\u0000\u0000\u0000\u0000\u0000\u0000\u0000\u0000\u0000\u0000\u0000\u0000\u0000\u0000\u0000\u0000\u0000\u0000\u0000",
        "\u0000\u0000\u0000\u0000\u0000\u0000\u0000\u0000\u0000\u0000\u0000\u0000\u0000\u0000\u0000\u0000\u0000\u0000\u0000\u0000\u0000\u0000\u0000\u0000\u0000\u0000\u0000\u0000\u0000\u0000\u0000\u0000\u0000\u0000\u0000\u0000\u0000\u0000\u0000\u0000\u0000\u0000\u0000\u0000\u0000\u0000\u0000\u0000\u0000\u0000",
        "\u0000\u0000\u0000\u0000\u0000\u0000\u0000\u0000\u0000\u0000\u0000\u0000\u0000\u0000\u0000\u0000\u0000\u0000\u0000\u0000\u0000\u0000\u0000\u0000\u0000\u0000\u0000\u0000\u0000\u0000\u0000\u0000\u0000\u0000\u0000\u0000\u0000\u0000\u0000\u0000\u0000\u0000\u0000\u0000\u0000\u0000\u0000\u0000\u0000\u0000",
        "\u0000\u0000\u0000\u0000\u0000\u0000\u0000\u0000\u0000\u0000\u0000\u0000\u0000\u0000\u0000\u0000\u0000\u0000\u0000\u0000\u0000\u0000\u0000\u0000\u0000\u0000\u0000\u0000\u0000\u0000\u0000\u0000\u0000\u0000\u0000\u0000\u0000\u0000\u0000\u0000\u0000\u0000\u0000\u0000\u0000\u0000\u0000\u0000\u0000\u0000",
        "\u0000\u0000\u0000\u0000\u0000\u0000\u0000\u0000\u0000\u0000\u0000\u0000\u0000\u0000\u0000\u0000\u0000\u0000\u0000\u0000\u0000\u0000\u0000\u0000\u0000\u0000\u0000\u0000\u0000\u0000\u0000\u0000\u0000\u0000\u0000\u0000\u0000\u0000\u0000\u0000\u0000\u0000\u0000\u0000\u0000\u0000\u0000\u0000\u0000\u0000",
        "\u0000\u0000\u0000\u0000\u0000\u0000\u0000\u0000\u0000\u0000\u0000\u0000\u0000\u0000\u0000\u0000\u0000\u0000\u0000\u0000\u0000\u0000\u0000\u0000\u0000\u0000\u0000\u0000\u0000\u0000\u0000\u0000\u0000\u0000\u0000\u0000\u0000\u0000\u0000\u0000\u0000\u0000\u0000\u0000\u0000\u0000\u0000\u0000\u0000\u0000",
        "\u0000\u0000\u0000\u0000\u0000\u0000\u0000\u0000\u0000\u0000\u0000\u0000\u0000\u0000\u0000\u0000\u0000\u0000\u0000\u0000\u0000\u0000\u0000\u0000\u0000\u0000\u0000\u0000\u0000\u0000\u0000\u0000\u0000\u0000\u0000\u0000\u0000\u0000\u0000\u0000\u0000\u0000\u0000\u0000\u0000\u0000\u0000\u0000\u0000\u0000",
        "\u0000\u0000\u0000\u0000\u0000\u0000\u0000\u0000\u0000\u0000\u0000\u0000\u0000\u0000\u0000\u0000\u0000\u0000\u0000\u0000\u0000\u0000\u0000\u0000\u0000\u0000\u0000\u0000\u0000\u0000\u0000\u0000\u0000\u0000\u0000\u0000\u0000\u0000\u0000\u0000\u0000\u0000\u0000\u0000\u0000\u0000\u0000\u0000\u0000\u0000",
