{
  "AcquisitionMatrixPE": 70,
  "AcquisitionNumber": 1,
  "AcquisitionTime": "16:13:37.115000",
  "BandwidthPerPixelPhaseEncode": 51.948,
  "BaseResolution": 70,
  "BodyPartExamined": "HEAD",
  "CoilCombinationMethod": "Sum of Squares",
  "ConsistencyInfo": "N4_VE11C_LATEST_20160120",
  "ConversionSoftware": "dcm2niix",
  "ConversionSoftwareVersion": "v1.0.20220720",
  "DerivedVendorReportedEchoSpacing": 0.000550001,
  "DeviceSerialNumber": "66061",
  "DwellTime": 3.3e-06,
  "EchoTime": 0.022,
  "EchoTrainLength": 35,
  "EffectiveEchoSpacing": 0.000275,
  "FlipAngle": 90,
  "HeudiconvVersion": "1.1.1",
  "ImageOrientationPatientDICOM": [0.999678, 0.00443607, 0.0249778, -0.00122136, 0.991867, -0.127274],
  "ImageOrientationText": "Tra>Cor(-7.3)>Sag(1.5)",
  "ImageType": [
    "ORIGINAL",
    "PRIMARY",
    "M",
    "ND",
    "NORM",
    "MOSAIC"
],
  "ImagingFrequency": 123.254,
  "InPlanePhaseEncodingDirectionDICOM": "COL",
  "InstitutionAddress": "Street StreetNo,City/1c4204/,District,KR,ZIP",
  "InstitutionName": "SKKU",
  "InstitutionalDepartmentName": "Department",
  "MRAcquisitionType": "2D",
  "MagneticFieldStrength": 3,
  "Manufacturer": "Siemens",
  "ManufacturersModelName": "Prisma",
  "MatrixCoilMode": "GRAPPA",
  "Modality": "MR",
  "NonlinearGradientCorrection": false,
  "ParallelReductionFactorInPlane": 2,
  "PartialFourier": 1,
  "PatientPosition": "HFS",
  "PercentPhaseFOV": 100,
  "PercentSampling": 100,
  "PhaseEncodingDirection": "j-",
  "PhaseEncodingSteps": 70,
  "PhaseResolution": 1,
  "PixelBandwidth": 2165,
  "ProcedureStepDescription": "Head^PI:Others",
  "ProtocolName": "BOLD_ep2d_3x3x3_response2",
  "PulseSequenceDetails": "%SiemensSeq%\\ep2d_pace",
  "ReceiveCoilActiveElements": "HC1-7",
  "ReceiveCoilName": "HeadNeck_64",
  "ReconMatrixPE": 70,
  "RefLinesPE": 24,
  "RepetitionTime": 2,
  "SAR": 0.140773,
  "ScanOptions": "FS",
  "ScanningSequence": "EP",
  "SequenceName": "*epfid2d1_70",
  "SequenceVariant": "SK",
  "SeriesDescription": "BOLD_ep2d_3x3x3_response2",
  "SeriesNumber": 9,
  "ShimSetting": [5059, 3741, 4443, 274, -65, -94, -54, 44],
  "SliceThickness": 3,
  "SliceTiming": [0.99, 0, 1.0375, 0.0475, 1.085, 0.095, 1.1325, 0.1425, 1.1775, 0.19, 1.225, 0.235, 1.2725, 0.2825, 1.32, 0.33, 1.3675, 0.3775, 1.415, 0.425, 1.4625, 0.4725, 1.5075, 0.5175, 1.555, 0.565, 1.6025, 0.6125, 1.65, 0.66, 1.6975, 0.7075, 1.745, 0.755, 1.7925, 0.8025, 1.8375, 0.8475, 1.885, 0.895, 1.9325, 0.9425],
  "SoftwareVersions": "syngo MR E11",
  "SpacingBetweenSlices": 3,
  "StationName": "AWP66061",
  "TaskName": "response",
  "TotalReadoutTime": 0.018975,
  "TxRefAmp": 253.612,
  "dcmmeta_affine": [
    [-2.9990344047546387, -0.0036640819162130356, 0.07601786404848099, 105.24110412597656],
    [-0.013308222405612469, 2.975600481033325, -0.381607323884964, -92.31250762939453],
    [0.07493352144956589, 0.38182172179222107, 2.9746592044830322, -69.28340148925781],
    [0.0, 0.0, 0.0, 1.0]
],
  "dcmmeta_reorient_transform": [
    [0.0, -1.0, 0.0, 69.0],
    [1.0, 0.0, 0.0, 0.0],
    [0.0, 0.0, -1.0, 41.0],
    [0.0, 0.0, 0.0, 1.0]
],
  "dcmmeta_shape": [70, 70, 42, 341],
  "dcmmeta_slice_dim": 2,
  "dcmmeta_version": 0.6,
  "global": {
    "const": {
      "AcquisitionMatrix": [70, 0, 0, 70],
      "AngioFlag": "N",
      "BitsAllocated": 16,
      "BitsStored": 12,
      "BodyPartExamined": "HEAD",
      "Columns": 490,
      "EchoNumbers": 1,
      "EchoTime": 22.0,
      "EchoTrainLength": 35,
      "FlipAngle": 90.0,
      "HighBit": 11,
      "ImageOrientationPatient": [0.99967816258376, 0.00443607418677, 0.02497784015821, -0.0012213606407, 0.99186685596308, -0.1272739106027],
      "ImagePositionPatient": [-737.13279850235, -725.02887424882, 143.46985359799],
      "ImageType": [
        "ORIGINAL",
        "PRIMARY",
        "M",
        "ND",
        "NORM",
        "MOSAIC"
],
      "ImagedNucleus": "1H",
      "ImagingFrequency": 123.254463,
      "InPlanePhaseEncodingDirection": "COL",
      "MRAcquisitionType": "2D",
      "MagneticFieldStrength": 3.0,
      "Manufacturer": "SIEMENS",
      "ManufacturerModelName": "Prisma",
      "Modality": "MR",
      "NumberOfAverages": 1.0,
      "NumberOfPhaseEncodingSteps": 70,
      "PercentPhaseFieldOfView": 100.0,
      "PercentSampling": 100.0,
      "PerformedProcedureStepStartTime": "152920.418000",
      "PhotometricInterpretation": "MONOCHROME2",
      "PixelBandwidth": 2165.0,
      "PixelRepresentation": 0,
      "PixelSpacing": [3.0, 3.0],
      "ProtocolName": "BOLD_ep2d_3x3x3_response2",
      "RepetitionTime": 2000.0,
      "Rows": 490,
      "SAR": 0.14077266296646,
      "SamplesPerPixel": 1,
      "ScanOptions": "FS",
      "ScanningSequence": "EP",
      "SequenceName": "*epfid2d1_70",
      "SequenceVariant": "SK",
      "SeriesDescription": "BOLD_ep2d_3x3x3_response2",
      "SeriesNumber": 9,
      "SeriesTime": "161418.113000",
      "SliceLocation": 68.710948575921,
      "SliceThickness": 3.0,
      "SmallestImagePixelValue": 0,
      "SoftwareVersions": "syngo MR E11",
      "SpacingBetweenSlices": 3.0000000798888,
      "SpecificCharacterSet": "ISO_IR 100",
      "StudyID": "1",
      "StudyTime": "152920.366000",
      "TransmitCoilName": "Body",
      "VariableFlipAngleFlag": "N",
      "WindowCenterWidthExplanation": "Algo1",
      "dBdt": 0.0},
    "slices": {}
  },
  "time": {
    "samples": {
      "AcquisitionNumber": [1, 2, 3, 4, 5, 6, 7, 8, 9, 10, 11, 12, 13, 14, 15, 16, 17, 18, 19, 20, 21, 22, 23, 24, 25, 26, 27, 28, 29, 30, 31, 32, 33, 34, 35, 36, 37, 38, 39, 40, 41, 42, 43, 44, 45, 46, 47, 48, 49, 50, 51, 52, 53, 54, 55, 56, 57, 58, 59, 60, 61, 62, 63, 64, 65, 66, 67, 68, 69, 70, 71, 72, 73, 74, 75, 76, 77, 78, 79, 80, 81, 82, 83, 84, 85, 86, 87, 88, 89, 90, 91, 92, 93, 94, 95, 96, 97, 98, 99, 100, 101, 102, 103, 104, 105, 106, 107, 108, 109, 110, 111, 112, 113, 114, 115, 116, 117, 118, 119, 120, 121, 122, 123, 124, 125, 126, 127, 128, 129, 130, 131, 132, 133, 134, 135, 136, 137, 138, 139, 140, 141, 142, 143, 144, 145, 146, 147, 148, 149, 150, 151, 152, 153, 154, 155, 156, 157, 158, 159, 160, 161, 162, 163, 164, 165, 166, 167, 168, 169, 170, 171, 172, 173, 174, 175, 176, 177, 178, 179, 180, 181, 182, 183, 184, 185, 186, 187, 188, 189, 190, 191, 192, 193, 194, 195, 196, 197, 198, 199, 200, 201, 202, 203, 204, 205, 206, 207, 208, 209, 210, 211, 212, 213, 214, 215, 216, 217, 218, 219, 220, 221, 222, 223, 224, 225, 226, 227, 228, 229, 230, 231, 232, 233, 234, 235, 236, 237, 238, 239, 240, 241, 242, 243, 244, 245, 246, 247, 248, 249, 250, 251, 252, 253, 254, 255, 256, 257, 258, 259, 260, 261, 262, 263, 264, 265, 266, 267, 268, 269, 270, 271, 272, 273, 274, 275, 276, 277, 278, 279, 280, 281, 282, 283, 284, 285, 286, 287, 288, 289, 290, 291, 292, 293, 294, 295, 296, 297, 298, 299, 300, 301, 302, 303, 304, 305, 306, 307, 308, 309, 310, 311, 312, 313, 314, 315, 316, 317, 318, 319, 320, 321, 322, 323, 324, 325, 326, 327, 328, 329, 330, 331, 332, 333, 334, 335, 336, 337, 338, 339, 340, 341],
      "AcquisitionTime": ["161337.115000", "161339.115000", "161341.115000", "161343.115000", "161345.115000", "161347.115000", "161349.115000", "161351.115000", "161353.115000", "161355.115000", "161357.115000", "161359.115000", "161401.115000", "161403.115000", "161405.115000", "161407.115000", "161409.115000", "161411.115000", "161413.115000", "161415.115000", "161417.115000", "161419.115000", "161421.115000", "161423.115000", "161425.115000", "161427.115000", "161429.115000", "161431.115000", "161433.115000", "161435.115000", "161437.115000", "161439.115000", "161441.115000", "161443.115000", "161445.115000", "161447.115000", "161449.115000", "161451.115000", "161453.115000", "161455.115000", "161457.115000", "161459.115000", "161501.115000", "161503.115000", "161505.115000", "161507.115000", "161509.115000", "161511.115000", "161513.115000", "161515.115000", "161517.115000", "161519.115000", "161521.115000", "161523.115000", "161525.115000", "161527.115000", "161529.115000", "161531.115000", "161533.115000", "161535.115000", "161537.115000", "161539.115000", "161541.115000", "161543.115000", "161545.115000", "161547.115000", "161549.115000", "161551.115000", "161553.115000", "161555.115000", "161557.115000", "161559.115000", "161601.115000", "161603.115000", "161605.115000", "161607.115000", "161609.115000", "161611.115000", "161613.115000", "161615.115000", "161617.115000", "161619.115000", "161621.115000", "161623.115000", "161625.115000", "161627.115000", "161629.115000", "161631.115000", "161633.115000", "161635.115000", "161637.115000", "161639.115000", "161641.115000", "161643.115000", "161645.115000", "161647.115000", "161649.115000", "161651.115000", "161653.115000", "161655.115000", "161657.115000", "161659.115000", "161701.115000", "161703.115000", "161705.115000", "161707.115000", "161709.115000", "161711.115000", "161713.115000", "161715.115000", "161717.115000", "161719.115000", "161721.115000", "161723.115000", "161725.115000", "161727.115000", "161729.115000", "161731.115000", "161733.115000", "161735.115000", "161737.115000", "161739.115000", "161741.115000", "161743.115000", "161745.115000", "161747.115000", "161749.115000", "161751.115000", "161753.115000", "161755.115000", "161757.115000", "161759.115000", "161801.115000", "161803.115000", "161805.115000", "161807.115000", "161809.115000", "161811.115000", "161813.115000", "161815.115000", "161817.115000", "161819.115000", "161821.115000", "161823.115000", "161825.115000", "161827.115000", "161829.115000", "161831.115000", "161833.115000", "161835.115000", "161837.115000", "161839.115000", "161841.115000", "161843.115000", "161845.115000", "161847.115000", "161849.115000", "161851.115000", "161853.115000", "161855.115000", "161857.115000", "161859.115000", "161901.115000", "161903.115000", "161905.115000", "161907.115000", "161909.115000", "161911.115000", "161913.115000", "161915.115000", "161917.115000", "161919.115000", "161921.115000", "161923.115000", "161925.115000", "161927.115000", "161929.115000", "161931.115000", "161933.115000", "161935.115000", "161937.115000", "161939.115000", "161941.115000", "161943.115000", "161945.115000", "161947.115000", "161949.115000", "161951.115000", "161953.115000", "161955.115000", "161957.115000", "161959.115000", "162001.115000", "162003.115000", "162005.115000", "162007.115000", "162009.115000", "162011.115000", "162013.115000", "162015.115000", "162017.115000", "162019.115000", "162021.115000", "162023.115000", "162025.115000", "162027.115000", "162029.115000", "162031.115000", "162033.115000", "162035.115000", "162037.115000", "162039.115000", "162041.115000", "162043.115000", "162045.115000", "162047.115000", "162049.115000", "162051.115000", "162053.115000", "162055.115000", "162057.115000", "162059.115000", "162101.115000", "162103.115000", "162105.115000", "162107.115000", "162109.115000", "162111.115000", "162113.115000", "162115.115000", "162117.115000", "162119.115000", "162121.115000", "162123.115000", "162125.115000", "162127.115000", "162129.115000", "162131.115000", "162133.115000", "162135.115000", "162137.115000", "162139.115000", "162141.115000", "162143.115000", "162145.115000", "162147.115000", "162149.115000", "162151.115000", "162153.115000", "162155.115000", "162157.115000", "162159.115000", "162201.115000", "162203.115000", "162205.115000", "162207.115000", "162209.115000", "162211.115000", "162213.115000", "162215.115000", "162217.115000", "162219.115000", "162221.115000", "162223.115000", "162225.115000", "162227.115000", "162229.115000", "162231.115000", "162233.115000", "162235.115000", "162237.115000", "162239.115000", "162241.115000", "162243.115000", "162245.115000", "162247.115000", "162249.115000", "162251.115000", "162253.115000", "162255.115000", "162257.115000", "162259.115000", "162301.115000", "162303.115000", "162305.115000", "162307.115000", "162309.115000", "162311.115000", "162313.115000", "162315.115000", "162317.115000", "162319.115000", "162321.115000", "162323.115000", "162325.115000", "162327.115000", "162329.115000", "162331.115000", "162333.115000", "162335.115000", "162337.115000", "162339.115000", "162341.115000", "162343.115000", "162345.115000", "162347.115000", "162349.115000", "162351.115000", "162353.115000", "162355.115000", "162357.115000", "162359.115000", "162401.115000", "162403.115000", "162405.115000", "162407.115000", "162409.115000", "162411.115000", "162413.115000", "162415.115000", "162417.115000", "162419.115000", "162421.115000", "162423.115000", "162425.115000", "162427.115000", "162429.115000", "162431.115000", "162433.115000", "162435.115000", "162437.115000", "162439.115000", "162441.115000", "162443.115000", "162445.115000", "162447.115000", "162449.115000", "162451.115000", "162453.115000", "162455.115000", "162457.115000"],
      "ContentTime": ["161418.117000", "161418.120000", "161418.123000", "161418.126000", "161418.129000", "161418.131000", "161418.134000", "161418.142000", "161418.145000", "161418.150000", "161418.153000", "161418.155000", "161418.158000", "161418.161000", "161418.163000", "161418.170000", "161418.173000", "161418.176000", "161418.178000", "161418.181000", "161458.111000", "161458.124000", "161458.127000", "161458.130000", "161458.133000", "161458.135000", "161458.138000", "161458.141000", "161458.143000", "161458.146000", "161458.149000", "161458.152000", "161458.154000", "161458.157000", "161458.160000", "161458.163000", "161458.165000", "161458.168000", "161458.171000", "161458.174000", "161538.111000", "161538.114000", "161538.117000", "161538.119000", "161538.122000", "161538.125000", "161538.128000", "161538.130000", "161538.133000", "161538.136000", "161538.138000", "161538.141000", "161538.144000", "161538.147000", "161538.149000", "161538.152000", "161538.155000", "161538.158000", "161538.160000", "161538.163000", "161618.112000", "161618.115000", "161618.117000", "161618.120000", "161618.123000", "161618.126000", "161618.128000", "161618.131000", "161618.141000", "161618.143000", "161618.146000", "161618.149000", "161618.152000", "161618.154000", "161618.157000", "161618.160000", "161618.163000", "161618.165000", "161618.168000", "161618.171000", "161658.111000", "161658.114000", "161658.116000", "161658.119000", "161658.122000", "161658.125000", "161658.127000", "161658.130000", "161658.133000", "161658.136000", "161658.138000", "161658.141000", "161658.144000", "161658.147000", "161658.149000", "161658.152000", "161658.155000", "161658.157000", "161658.160000", "161658.163000", "161738.111000", "161738.114000", "161738.117000", "161738.120000", "161738.123000", "161738.125000", "161738.128000", "161738.131000", "161738.134000", "161738.136000", "161738.139000", "161738.142000", "161738.145000", "161738.147000", "161738.150000", "161738.153000", "161738.155000", "161738.158000", "161738.170000", "161738.172000", "161818.111000", "161818.114000", "161818.117000", "161818.119000", "161818.122000", "161818.125000", "161818.128000", "161818.130000", "161818.133000", "161818.136000", "161818.138000", "161818.141000", "161818.144000", "161818.147000", "161818.149000", "161818.152000", "161818.155000", "161818.158000", "161818.160000", "161818.163000", "161858.112000", "161858.115000", "161858.118000", "161858.120000", "161858.123000", "161858.126000", "161858.129000", "161858.131000", "161858.134000", "161858.137000", "161858.139000", "161858.142000", "161858.145000", "161858.148000", "161858.150000", "161858.153000", "161858.156000", "161858.159000", "161858.161000", "161858.164000", "161938.111000", "161938.114000", "161938.117000", "161938.119000", "161938.122000", "161938.125000", "161938.128000", "161938.130000", "161938.133000", "161938.136000", "161938.153000", "161938.156000", "161938.159000", "161938.162000", "161938.165000", "161938.167000", "161938.170000", "161938.173000", "161938.176000", "161938.179000", "162018.111000", "162018.114000", "162018.116000", "162018.119000", "162018.122000", "162018.125000", "162018.127000", "162018.130000", "162018.133000", "162018.136000", "162018.139000", "162018.141000", "162018.144000", "162018.147000", "162018.149000", "162018.152000", "162018.155000", "162018.158000", "162018.160000", "162018.163000", "162058.112000", "162058.127000", "162058.129000", "162058.132000", "162058.135000", "162058.138000", "162058.140000", "162058.143000", "162058.146000", "162058.149000", "162058.151000", "162058.154000", "162058.157000", "162058.160000", "162058.162000", "162058.165000", "162058.168000", "162058.171000", "162058.173000", "162058.176000", "162138.111000", "162138.114000", "162138.116000", "162138.119000", "162138.122000", "162138.125000", "162138.127000", "162138.130000", "162138.133000", "162138.136000", "162138.138000", "162138.141000", "162138.144000", "162138.147000", "162138.149000", "162138.152000", "162138.155000", "162138.158000", "162138.160000", "162138.163000", "162218.111000", "162218.114000", "162218.116000", "162218.119000", "162218.122000", "162218.125000", "162218.127000", "162218.130000", "162218.133000", "162218.136000", "162218.138000", "162218.141000", "162218.144000", "162218.146000", "162218.149000", "162218.152000", "162218.155000", "162218.158000", "162218.160000", "162218.163000", "162258.111000", "162258.114000", "162258.117000", "162258.119000", "162258.122000", "162258.125000", "162258.127000", "162258.130000", "162258.133000", "162258.136000", "162258.138000", "162258.141000", "162258.144000", "162258.147000", "162258.150000", "162258.152000", "162258.155000", "162258.158000", "162258.160000", "162258.163000", "162338.112000", "162338.115000", "162338.117000", "162338.120000", "162338.123000", "162338.126000", "162338.128000", "162338.131000", "162338.134000", "162338.137000", "162338.139000", "162338.142000", "162338.145000", "162338.148000", "162338.150000", "162338.153000", "162338.156000", "162338.159000", "162338.161000", "162338.164000", "162418.111000", "162418.114000", "162418.117000", "162418.119000", "162418.122000", "162418.125000", "162418.128000", "162418.130000", "162418.133000", "162418.136000", "162418.139000", "162418.141000", "162418.144000", "162418.147000", "162418.149000", "162418.152000", "162418.155000", "162418.158000", "162418.160000", "162418.163000", "162458.111000", "162458.114000", "162458.116000", "162458.119000", "162458.122000", "162458.125000", "162458.128000", "162458.130000", "162458.133000", "162458.136000", "162458.139000", "162458.141000", "162458.144000", "162458.147000", "162458.150000", "162458.152000", "162458.155000", "162458.158000", "162458.161000", "162458.163000", "162458.370000"],
      "DataSetTrailingPadding": [
        "\u0000\u0000\u0000\u0000\u0000\u0000\u0000\u0000\u0000\u0000\u0000\u0000\u0000\u0000\u0000\u0000\u0000\u0000\u0000\u0000\u0000\u0000\u0000\u0000\u0000\u0000\u0000\u0000\u0000\u0000\u0000\u0000\u0000\u0000\u0000\u0000\u0000\u0000\u0000\u0000\u0000\u0000\u0000\u0000\u0000\u0000\u0000\u0000",
        "\u0000\u0000\u0000\u0000\u0000\u0000\u0000\u0000\u0000\u0000\u0000\u0000\u0000\u0000\u0000\u0000\u0000\u0000\u0000\u0000\u0000\u0000\u0000\u0000\u0000\u0000\u0000\u0000\u0000\u0000\u0000\u0000\u0000\u0000\u0000\u0000\u0000\u0000\u0000\u0000\u0000\u0000\u0000\u0000\u0000\u0000",
        "\u0000\u0000\u0000\u0000\u0000\u0000\u0000\u0000\u0000\u0000\u0000\u0000\u0000\u0000\u0000\u0000\u0000\u0000\u0000\u0000\u0000\u0000\u0000\u0000\u0000\u0000\u0000\u0000\u0000\u0000\u0000\u0000\u0000\u0000\u0000\u0000\u0000\u0000\u0000\u0000\u0000\u0000\u0000\u0000\u0000\u0000",
        "\u0000\u0000\u0000\u0000\u0000\u0000\u0000\u0000\u0000\u0000\u0000\u0000\u0000\u0000\u0000\u0000\u0000\u0000\u0000\u0000\u0000\u0000\u0000\u0000\u0000\u0000\u0000\u0000\u0000\u0000\u0000\u0000\u0000\u0000\u0000\u0000\u0000\u0000\u0000\u0000\u0000\u0000\u0000\u0000\u0000\u0000",
        "\u0000\u0000\u0000\u0000\u0000\u0000\u0000\u0000\u0000\u0000\u0000\u0000\u0000\u0000\u0000\u0000\u0000\u0000\u0000\u0000\u0000\u0000\u0000\u0000\u0000\u0000\u0000\u0000\u0000\u0000\u0000\u0000\u0000\u0000\u0000\u0000\u0000\u0000\u0000\u0000\u0000\u0000\u0000\u0000",
        "\u0000\u0000\u0000\u0000\u0000\u0000\u0000\u0000\u0000\u0000\u0000\u0000\u0000\u0000\u0000\u0000\u0000\u0000\u0000\u0000\u0000\u0000\u0000\u0000\u0000\u0000\u0000\u0000\u0000\u0000\u0000\u0000\u0000\u0000\u0000\u0000\u0000\u0000\u0000\u0000\u0000\u0000\u0000\u0000",
        "\u0000\u0000\u0000\u0000\u0000\u0000\u0000\u0000\u0000\u0000\u0000\u0000\u0000\u0000\u0000\u0000\u0000\u0000\u0000\u0000\u0000\u0000\u0000\u0000\u0000\u0000\u0000\u0000\u0000\u0000\u0000\u0000\u0000\u0000\u0000\u0000\u0000\u0000\u0000\u0000\u0000\u0000\u0000\u0000",
        "\u0000\u0000\u0000\u0000\u0000\u0000\u0000\u0000\u0000\u0000\u0000\u0000\u0000\u0000\u0000\u0000\u0000\u0000\u0000\u0000\u0000\u0000\u0000\u0000\u0000\u0000\u0000\u0000\u0000\u0000\u0000\u0000\u0000\u0000\u0000\u0000\u0000\u0000\u0000\u0000\u0000\u0000\u0000\u0000",
        "\u0000\u0000\u0000\u0000\u0000\u0000\u0000\u0000\u0000\u0000\u0000\u0000\u0000\u0000\u0000\u0000\u0000\u0000\u0000\u0000\u0000\u0000\u0000\u0000\u0000\u0000\u0000\u0000\u0000\u0000\u0000\u0000\u0000\u0000\u0000\u0000\u0000\u0000\u0000\u0000\u0000\u0000\u0000\u0000",
        "\u0000\u0000\u0000\u0000\u0000\u0000\u0000\u0000\u0000\u0000\u0000\u0000\u0000\u0000\u0000\u0000\u0000\u0000\u0000\u0000\u0000\u0000\u0000\u0000\u0000\u0000\u0000\u0000\u0000\u0000\u0000\u0000\u0000\u0000\u0000\u0000\u0000\u0000\u0000\u0000\u0000\u0000\u0000\u0000",
        "\u0000\u0000\u0000\u0000\u0000\u0000\u0000\u0000\u0000\u0000\u0000\u0000\u0000\u0000\u0000\u0000\u0000\u0000\u0000\u0000\u0000\u0000\u0000\u0000\u0000\u0000\u0000\u0000\u0000\u0000\u0000\u0000\u0000\u0000\u0000\u0000\u0000\u0000\u0000\u0000\u0000\u0000\u0000\u0000",
        "\u0000\u0000\u0000\u0000\u0000\u0000\u0000\u0000\u0000\u0000\u0000\u0000\u0000\u0000\u0000\u0000\u0000\u0000\u0000\u0000\u0000\u0000\u0000\u0000\u0000\u0000\u0000\u0000\u0000\u0000\u0000\u0000\u0000\u0000\u0000\u0000\u0000\u0000\u0000\u0000\u0000\u0000\u0000\u0000",
        "\u0000\u0000\u0000\u0000\u0000\u0000\u0000\u0000\u0000\u0000\u0000\u0000\u0000\u0000\u0000\u0000\u0000\u0000\u0000\u0000\u0000\u0000\u0000\u0000\u0000\u0000\u0000\u0000\u0000\u0000\u0000\u0000\u0000\u0000\u0000\u0000\u0000\u0000\u0000\u0000\u0000\u0000\u0000\u0000",
        "\u0000\u0000\u0000\u0000\u0000\u0000\u0000\u0000\u0000\u0000\u0000\u0000\u0000\u0000\u0000\u0000\u0000\u0000\u0000\u0000\u0000\u0000\u0000\u0000\u0000\u0000\u0000\u0000\u0000\u0000\u0000\u0000\u0000\u0000\u0000\u0000\u0000\u0000\u0000\u0000\u0000\u0000\u0000\u0000",
        "\u0000\u0000\u0000\u0000\u0000\u0000\u0000\u0000\u0000\u0000\u0000\u0000\u0000\u0000\u0000\u0000\u0000\u0000\u0000\u0000\u0000\u0000\u0000\u0000\u0000\u0000\u0000\u0000\u0000\u0000\u0000\u0000\u0000\u0000\u0000\u0000\u0000\u0000\u0000\u0000\u0000\u0000\u0000\u0000",
        "\u0000\u0000\u0000\u0000\u0000\u0000\u0000\u0000\u0000\u0000\u0000\u0000\u0000\u0000\u0000\u0000\u0000\u0000\u0000\u0000\u0000\u0000\u0000\u0000\u0000\u0000\u0000\u0000\u0000\u0000\u0000\u0000\u0000\u0000\u0000\u0000\u0000\u0000\u0000\u0000\u0000\u0000\u0000\u0000",
        "\u0000\u0000\u0000\u0000\u0000\u0000\u0000\u0000\u0000\u0000\u0000\u0000\u0000\u0000\u0000\u0000\u0000\u0000\u0000\u0000\u0000\u0000\u0000\u0000\u0000\u0000\u0000\u0000\u0000\u0000\u0000\u0000\u0000\u0000\u0000\u0000\u0000\u0000\u0000\u0000\u0000\u0000\u0000\u0000",
        "\u0000\u0000\u0000\u0000\u0000\u0000\u0000\u0000\u0000\u0000\u0000\u0000\u0000\u0000\u0000\u0000\u0000\u0000\u0000\u0000\u0000\u0000\u0000\u0000\u0000\u0000\u0000\u0000\u0000\u0000\u0000\u0000\u0000\u0000\u0000\u0000\u0000\u0000\u0000\u0000\u0000\u0000\u0000\u0000",
        "\u0000\u0000\u0000\u0000\u0000\u0000\u0000\u0000\u0000\u0000\u0000\u0000\u0000\u0000\u0000\u0000\u0000\u0000\u0000\u0000\u0000\u0000\u0000\u0000\u0000\u0000\u0000\u0000\u0000\u0000\u0000\u0000\u0000\u0000\u0000\u0000\u0000\u0000\u0000\u0000\u0000\u0000\u0000\u0000",
        "\u0000\u0000\u0000\u0000\u0000\u0000\u0000\u0000\u0000\u0000\u0000\u0000\u0000\u0000\u0000\u0000\u0000\u0000\u0000\u0000\u0000\u0000\u0000\u0000\u0000\u0000\u0000\u0000\u0000\u0000\u0000\u0000\u0000\u0000\u0000\u0000\u0000\u0000\u0000\u0000\u0000\u0000\u0000\u0000",
        "\u0000\u0000\u0000\u0000\u0000\u0000\u0000\u0000\u0000\u0000\u0000\u0000\u0000\u0000\u0000\u0000\u0000\u0000\u0000\u0000\u0000\u0000\u0000\u0000\u0000\u0000\u0000\u0000\u0000\u0000\u0000\u0000\u0000\u0000\u0000\u0000\u0000\u0000\u0000\u0000\u0000\u0000\u0000\u0000",
        "\u0000\u0000\u0000\u0000\u0000\u0000\u0000\u0000\u0000\u0000\u0000\u0000\u0000\u0000\u0000\u0000\u0000\u0000\u0000\u0000\u0000\u0000\u0000\u0000\u0000\u0000\u0000\u0000\u0000\u0000\u0000\u0000\u0000\u0000\u0000\u0000\u0000\u0000\u0000\u0000\u0000\u0000\u0000\u0000",
        "\u0000\u0000\u0000\u0000\u0000\u0000\u0000\u0000\u0000\u0000\u0000\u0000\u0000\u0000\u0000\u0000\u0000\u0000\u0000\u0000\u0000\u0000\u0000\u0000\u0000\u0000\u0000\u0000\u0000\u0000\u0000\u0000\u0000\u0000\u0000\u0000\u0000\u0000\u0000\u0000\u0000\u0000\u0000\u0000",
        "\u0000\u0000\u0000\u0000\u0000\u0000\u0000\u0000\u0000\u0000\u0000\u0000\u0000\u0000\u0000\u0000\u0000\u0000\u0000\u0000\u0000\u0000\u0000\u0000\u0000\u0000\u0000\u0000\u0000\u0000\u0000\u0000\u0000\u0000\u0000\u0000\u0000\u0000\u0000\u0000\u0000\u0000\u0000\u0000",
        "\u0000\u0000\u0000\u0000\u0000\u0000\u0000\u0000\u0000\u0000\u0000\u0000\u0000\u0000\u0000\u0000\u0000\u0000\u0000\u0000\u0000\u0000\u0000\u0000\u0000\u0000\u0000\u0000\u0000\u0000\u0000\u0000\u0000\u0000\u0000\u0000\u0000\u0000\u0000\u0000\u0000\u0000\u0000\u0000",
        "\u0000\u0000\u0000\u0000\u0000\u0000\u0000\u0000\u0000\u0000\u0000\u0000\u0000\u0000\u0000\u0000\u0000\u0000\u0000\u0000\u0000\u0000\u0000\u0000\u0000\u0000\u0000\u0000\u0000\u0000\u0000\u0000\u0000\u0000\u0000\u0000\u0000\u0000\u0000\u0000\u0000\u0000\u0000\u0000",
        "\u0000\u0000\u0000\u0000\u0000\u0000\u0000\u0000\u0000\u0000\u0000\u0000\u0000\u0000\u0000\u0000\u0000\u0000\u0000\u0000\u0000\u0000\u0000\u0000\u0000\u0000\u0000\u0000\u0000\u0000\u0000\u0000\u0000\u0000\u0000\u0000\u0000\u0000\u0000\u0000\u0000\u0000\u0000\u0000",
        "\u0000\u0000\u0000\u0000\u0000\u0000\u0000\u0000\u0000\u0000\u0000\u0000\u0000\u0000\u0000\u0000\u0000\u0000\u0000\u0000\u0000\u0000\u0000\u0000\u0000\u0000\u0000\u0000\u0000\u0000\u0000\u0000\u0000\u0000\u0000\u0000\u0000\u0000\u0000\u0000\u0000\u0000\u0000\u0000",
        "\u0000\u0000\u0000\u0000\u0000\u0000\u0000\u0000\u0000\u0000\u0000\u0000\u0000\u0000\u0000\u0000\u0000\u0000\u0000\u0000\u0000\u0000\u0000\u0000\u0000\u0000\u0000\u0000\u0000\u0000\u0000\u0000\u0000\u0000\u0000\u0000\u0000\u0000\u0000\u0000\u0000\u0000\u0000\u0000",
        "\u0000\u0000\u0000\u0000\u0000\u0000\u0000\u0000\u0000\u0000\u0000\u0000\u0000\u0000\u0000\u0000\u0000\u0000\u0000\u0000\u0000\u0000\u0000\u0000\u0000\u0000\u0000\u0000\u0000\u0000\u0000\u0000\u0000\u0000\u0000\u0000\u0000\u0000\u0000\u0000\u0000\u0000\u0000\u0000",
        "\u0000\u0000\u0000\u0000\u0000\u0000\u0000\u0000\u0000\u0000\u0000\u0000\u0000\u0000\u0000\u0000\u0000\u0000\u0000\u0000\u0000\u0000\u0000\u0000\u0000\u0000\u0000\u0000\u0000\u0000\u0000\u0000\u0000\u0000\u0000\u0000\u0000\u0000\u0000\u0000\u0000\u0000\u0000\u0000",
        "\u0000\u0000\u0000\u0000\u0000\u0000\u0000\u0000\u0000\u0000\u0000\u0000\u0000\u0000\u0000\u0000\u0000\u0000\u0000\u0000\u0000\u0000\u0000\u0000\u0000\u0000\u0000\u0000\u0000\u0000\u0000\u0000\u0000\u0000\u0000\u0000\u0000\u0000\u0000\u0000\u0000\u0000\u0000\u0000",
        "\u0000\u0000\u0000\u0000\u0000\u0000\u0000\u0000\u0000\u0000\u0000\u0000\u0000\u0000\u0000\u0000\u0000\u0000\u0000\u0000\u0000\u0000\u0000\u0000\u0000\u0000\u0000\u0000\u0000\u0000\u0000\u0000\u0000\u0000\u0000\u0000\u0000\u0000\u0000\u0000\u0000\u0000\u0000\u0000",
        "\u0000\u0000\u0000\u0000\u0000\u0000\u0000\u0000\u0000\u0000\u0000\u0000\u0000\u0000\u0000\u0000\u0000\u0000\u0000\u0000\u0000\u0000\u0000\u0000\u0000\u0000\u0000\u0000\u0000\u0000\u0000\u0000\u0000\u0000\u0000\u0000\u0000\u0000\u0000\u0000\u0000\u0000\u0000\u0000",
        "\u0000\u0000\u0000\u0000\u0000\u0000\u0000\u0000\u0000\u0000\u0000\u0000\u0000\u0000\u0000\u0000\u0000\u0000\u0000\u0000\u0000\u0000\u0000\u0000\u0000\u0000\u0000\u0000\u0000\u0000\u0000\u0000\u0000\u0000\u0000\u0000\u0000\u0000\u0000\u0000\u0000\u0000\u0000\u0000",
        "\u0000\u0000\u0000\u0000\u0000\u0000\u0000\u0000\u0000\u0000\u0000\u0000\u0000\u0000\u0000\u0000\u0000\u0000\u0000\u0000\u0000\u0000\u0000\u0000\u0000\u0000\u0000\u0000\u0000\u0000\u0000\u0000\u0000\u0000\u0000\u0000\u0000\u0000\u0000\u0000\u0000\u0000\u0000\u0000",
        "\u0000\u0000\u0000\u0000\u0000\u0000\u0000\u0000\u0000\u0000\u0000\u0000\u0000\u0000\u0000\u0000\u0000\u0000\u0000\u0000\u0000\u0000\u0000\u0000\u0000\u0000\u0000\u0000\u0000\u0000\u0000\u0000\u0000\u0000\u0000\u0000\u0000\u0000\u0000\u0000\u0000\u0000\u0000\u0000",
        "\u0000\u0000\u0000\u0000\u0000\u0000\u0000\u0000\u0000\u0000\u0000\u0000\u0000\u0000\u0000\u0000\u0000\u0000\u0000\u0000\u0000\u0000\u0000\u0000\u0000\u0000\u0000\u0000\u0000\u0000\u0000\u0000\u0000\u0000\u0000\u0000\u0000\u0000\u0000\u0000\u0000\u0000\u0000\u0000",
        "\u0000\u0000\u0000\u0000\u0000\u0000\u0000\u0000\u0000\u0000\u0000\u0000\u0000\u0000\u0000\u0000\u0000\u0000\u0000\u0000\u0000\u0000\u0000\u0000\u0000\u0000\u0000\u0000\u0000\u0000\u0000\u0000\u0000\u0000\u0000\u0000\u0000\u0000\u0000\u0000\u0000\u0000\u0000\u0000",
        "\u0000\u0000\u0000\u0000\u0000\u0000\u0000\u0000\u0000\u0000\u0000\u0000\u0000\u0000\u0000\u0000\u0000\u0000\u0000\u0000\u0000\u0000\u0000\u0000\u0000\u0000\u0000\u0000\u0000\u0000\u0000\u0000\u0000\u0000\u0000\u0000\u0000\u0000\u0000\u0000\u0000\u0000\u0000\u0000",
