{
  "AcquisitionMatrixPE": 70,
  "AcquisitionNumber": 1,
  "AcquisitionTime": "15:36:19.462500",
  "BandwidthPerPixelPhaseEncode": 51.948,
  "BaseResolution": 70,
  "BodyPartExamined": "HEAD",
  "CoilCombinationMethod": "Sum of Squares",
  "ConsistencyInfo": "N4_VE11C_LATEST_20160120",
  "ConversionSoftware": "dcm2niix",
  "ConversionSoftwareVersion": "v1.0.20220720",
  "DerivedVendorReportedEchoSpacing": 0.000550001,
  "DeviceSerialNumber": "66061",
  "DwellTime": 3.3e-06,
  "EchoTime": 0.022,
  "EchoTrainLength": 35,
  "EffectiveEchoSpacing": 0.000275,
  "FlipAngle": 90,
  "HeudiconvVersion": "1.1.1",
  "ImageOrientationPatientDICOM": [0.999014, 0.00686128, 0.0438532, -0.00122051, 0.991853, -0.127382],
  "ImageOrientationText": "Tra>Cor(-7.3)>Sag(2.5)",
  "ImageType": [
    "ORIGINAL",
    "PRIMARY",
    "M",
    "ND",
    "NORM",
    "MOSAIC"
],
  "ImagingFrequency": 123.255,
  "InPlanePhaseEncodingDirectionDICOM": "COL",
  "InstitutionAddress": "Street StreetNo,City/1c4204/,District,KR,ZIP",
  "InstitutionName": "SKKU",
  "InstitutionalDepartmentName": "Department",
  "MRAcquisitionType": "2D",
  "MagneticFieldStrength": 3,
  "Manufacturer": "Siemens",
  "ManufacturersModelName": "Prisma",
  "MatrixCoilMode": "GRAPPA",
  "Modality": "MR",
  "NonlinearGradientCorrection": false,
  "ParallelReductionFactorInPlane": 2,
  "PartialFourier": 1,
  "PatientPosition": "HFS",
  "PercentPhaseFOV": 100,
  "PercentSampling": 100,
  "PhaseEncodingDirection": "j-",
  "PhaseEncodingSteps": 70,
  "PhaseResolution": 1,
  "PixelBandwidth": 2165,
  "ProcedureStepDescription": "Head^PI:Others",
  "ProtocolName": "BOLD_ep2d_3x3x3_response2",
  "PulseSequenceDetails": "%SiemensSeq%\\ep2d_pace",
  "ReceiveCoilActiveElements": "HC1-7",
  "ReceiveCoilName": "HeadNeck_64",
  "ReconMatrixPE": 70,
  "RefLinesPE": 24,
  "RepetitionTime": 2,
  "SAR": 0.0987397,
  "ScanOptions": "FS",
  "ScanningSequence": "EP",
  "SequenceName": "*epfid2d1_70",
  "SequenceVariant": "SK",
  "SeriesDescription": "BOLD_ep2d_3x3x3_response2",
  "SeriesNumber": 14,
  "ShimSetting": [5062, 3705, 4418, 371, -28, -50, -10, 11],
  "SliceThickness": 3,
  "SliceTiming": [0.99, 0, 1.0375, 0.0475, 1.085, 0.095, 1.1325, 0.1425, 1.18, 0.19, 1.2275, 0.2375, 1.2725, 0.285, 1.32, 0.33, 1.3675, 0.3775, 1.415, 0.425, 1.4625, 0.4725, 1.51, 0.52, 1.5575, 0.5675, 1.6025, 0.615, 1.65, 0.66, 1.6975, 0.7075, 1.745, 0.755, 1.7925, 0.8025, 1.84, 0.85, 1.8875, 0.8975, 1.9325, 0.9425],
  "SoftwareVersions": "syngo MR E11",
  "SpacingBetweenSlices": 3,
  "StationName": "AWP66061",
  "TaskName": "response",
  "TotalReadoutTime": 0.018975,
  "TxRefAmp": 211.981,
  "dcmmeta_affine": [
    [-2.9970433712005615, -0.0036615156568586826, 0.1331096887588501, 106.97901916503906],
    [-0.020583851262927055, 2.9755592346191406, -0.3816072940826416, -93.25296020507812],
    [0.13155950605869293, 0.3821445107460022, 2.972651481628418, -61.60269546508789],
    [0.0, 0.0, 0.0, 1.0]
],
  "dcmmeta_reorient_transform": [
    [0.0, -1.0, 0.0, 69.0],
    [1.0, 0.0, 0.0, 0.0],
    [0.0, 0.0, -1.0, 41.0],
    [0.0, 0.0, 0.0, 1.0]
],
  "dcmmeta_shape": [70, 70, 42, 341],
  "dcmmeta_slice_dim": 2,
  "dcmmeta_version": 0.6,
  "global": {
    "const": {
      "AcquisitionMatrix": [70, 0, 0, 70],
      "AngioFlag": "N",
      "BitsAllocated": 16,
      "BitsStored": 12,
      "BodyPartExamined": "HEAD",
      "Columns": 490,
      "EchoNumbers": 1,
      "EchoTime": 22.0,
      "EchoTrainLength": 35,
      "FlipAngle": 90.0,
      "HighBit": 11,
      "ImageOrientationPatient": [0.99901442557498, 0.00686128345912, 0.04385316730173, -0.0012205052077, 0.99185304445859, -0.1273815079407],
      "ImagePositionPatient": [-740.7940392634, -725.60474701531, 139.26684263774],
      "ImageType": [
        "ORIGINAL",
        "PRIMARY",
        "M",
        "ND",
        "NORM",
        "MOSAIC"
],
      "ImagedNucleus": "1H",
      "ImagingFrequency": 123.254659,
      "InPlanePhaseEncodingDirection": "COL",
      "MRAcquisitionType": "2D",
      "MagneticFieldStrength": 3.0,
      "Manufacturer": "SIEMENS",
      "ManufacturerModelName": "Prisma",
      "Modality": "MR",
      "NumberOfAverages": 1.0,
      "NumberOfPhaseEncodingSteps": 70,
      "PercentPhaseFieldOfView": 100.0,
      "PercentSampling": 100.0,
      "PerformedProcedureStepStartTime": "142205.024000",
      "PhotometricInterpretation": "MONOCHROME2",
      "PixelBandwidth": 2165.0,
      "PixelRepresentation": 0,
      "PixelSpacing": [3.0, 3.0],
      "ProtocolName": "BOLD_ep2d_3x3x3_response2",
      "RepetitionTime": 2000.0,
      "Rows": 490,
      "SAR": 0.09873970513305,
      "SamplesPerPixel": 1,
      "ScanOptions": "FS",
      "ScanningSequence": "EP",
      "SequenceName": "*epfid2d1_70",
      "SequenceVariant": "SK",
      "SeriesDescription": "BOLD_ep2d_3x3x3_response2",
      "SeriesNumber": 14,
      "SeriesTime": "153707.948000",
      "SliceLocation": 78.567529572124,
      "SliceThickness": 3.0,
      "SmallestImagePixelValue": 0,
      "SoftwareVersions": "syngo MR E11",
      "SpacingBetweenSlices": 2.9999998847701,
      "SpecificCharacterSet": "ISO_IR 100",
      "StudyID": "1",
      "StudyTime": "142204.957000",
      "TransmitCoilName": "Body",
      "VariableFlipAngleFlag": "N",
      "WindowCenterWidthExplanation": "Algo1",
      "dBdt": 0.0},
    "slices": {}
  },
  "time": {
    "samples": {
      "AcquisitionNumber": [1, 2, 3, 4, 5, 6, 7, 8, 9, 10, 11, 12, 13, 14, 15, 16, 17, 18, 19, 20, 21, 22, 23, 24, 25, 26, 27, 28, 29, 30, 31, 32, 33, 34, 35, 36, 37, 38, 39, 40, 41, 42, 43, 44, 45, 46, 47, 48, 49, 50, 51, 52, 53, 54, 55, 56, 57, 58, 59, 60, 61, 62, 63, 64, 65, 66, 67, 68, 69, 70, 71, 72, 73, 74, 75, 76, 77, 78, 79, 80, 81, 82, 83, 84, 85, 86, 87, 88, 89, 90, 91, 92, 93, 94, 95, 96, 97, 98, 99, 100, 101, 102, 103, 104, 105, 106, 107, 108, 109, 110, 111, 112, 113, 114, 115, 116, 117, 118, 119, 120, 121, 122, 123, 124, 125, 126, 127, 128, 129, 130, 131, 132, 133, 134, 135, 136, 137, 138, 139, 140, 141, 142, 143, 144, 145, 146, 147, 148, 149, 150, 151, 152, 153, 154, 155, 156, 157, 158, 159, 160, 161, 162, 163, 164, 165, 166, 167, 168, 169, 170, 171, 172, 173, 174, 175, 176, 177, 178, 179, 180, 181, 182, 183, 184, 185, 186, 187, 188, 189, 190, 191, 192, 193, 194, 195, 196, 197, 198, 199, 200, 201, 202, 203, 204, 205, 206, 207, 208, 209, 210, 211, 212, 213, 214, 215, 216, 217, 218, 219, 220, 221, 222, 223, 224, 225, 226, 227, 228, 229, 230, 231, 232, 233, 234, 235, 236, 237, 238, 239, 240, 241, 242, 243, 244, 245, 246, 247, 248, 249, 250, 251, 252, 253, 254, 255, 256, 257, 258, 259, 260, 261, 262, 263, 264, 265, 266, 267, 268, 269, 270, 271, 272, 273, 274, 275, 276, 277, 278, 279, 280, 281, 282, 283, 284, 285, 286, 287, 288, 289, 290, 291, 292, 293, 294, 295, 296, 297, 298, 299, 300, 301, 302, 303, 304, 305, 306, 307, 308, 309, 310, 311, 312, 313, 314, 315, 316, 317, 318, 319, 320, 321, 322, 323, 324, 325, 326, 327, 328, 329, 330, 331, 332, 333, 334, 335, 336, 337, 338, 339, 340, 341],
      "AcquisitionTime": ["153619.462500", "153621.462500", "153623.462500", "153625.462500", "153627.462500", "153629.462500", "153631.462500", "153633.462500", "153635.462500", "153637.462500", "153639.462500", "153641.462500", "153643.462500", "153645.462500", "153647.462500", "153649.462500", "153651.462500", "153653.462500", "153655.462500", "153657.462500", "153659.462500", "153701.462500", "153703.462500", "153705.462500", "153707.462500", "153709.462500", "153711.462500", "153713.462500", "153715.462500", "153717.462500", "153719.462500", "153721.462500", "153723.462500", "153725.462500", "153727.462500", "153729.462500", "153731.462500", "153733.462500", "153735.462500", "153737.462500", "153739.462500", "153741.462500", "153743.462500", "153745.462500", "153747.462500", "153749.462500", "153751.462500", "153753.462500", "153755.462500", "153757.462500", "153759.462500", "153801.462500", "153803.462500", "153805.462500", "153807.462500", "153809.462500", "153811.462500", "153813.462500", "153815.462500", "153817.462500", "153819.462500", "153821.462500", "153823.462500", "153825.462500", "153827.462500", "153829.462500", "153831.462500", "153833.462500", "153835.462500", "153837.462500", "153839.462500", "153841.462500", "153843.462500", "153845.462500", "153847.462500", "153849.462500", "153851.462500", "153853.462500", "153855.462500", "153857.462500", "153859.462500", "153901.462500", "153903.462500", "153905.462500", "153907.462500", "153909.462500", "153911.462500", "153913.462500", "153915.462500", "153917.462500", "153919.462500", "153921.462500", "153923.462500", "153925.462500", "153927.462500", "153929.462500", "153931.462500", "153933.462500", "153935.462500", "153937.462500", "153939.462500", "153941.462500", "153943.462500", "153945.462500", "153947.462500", "153949.462500", "153951.462500", "153953.462500", "153955.462500", "153957.462500", "153959.462500", "154001.462500", "154003.462500", "154005.462500", "154007.462500", "154009.462500", "154011.462500", "154013.462500", "154015.462500", "154017.462500", "154019.462500", "154021.462500", "154023.462500", "154025.462500", "154027.462500", "154029.462500", "154031.462500", "154033.462500", "154035.462500", "154037.462500", "154039.462500", "154041.462500", "154043.462500", "154045.462500", "154047.462500", "154049.462500", "154051.462500", "154053.462500", "154055.462500", "154057.462500", "154059.462500", "154101.462500", "154103.462500", "154105.462500", "154107.462500", "154109.462500", "154111.462500", "154113.462500", "154115.462500", "154117.462500", "154119.462500", "154121.462500", "154123.462500", "154125.462500", "154127.462500", "154129.462500", "154131.462500", "154133.462500", "154135.462500", "154137.462500", "154139.462500", "154141.462500", "154143.462500", "154145.462500", "154147.462500", "154149.462500", "154151.462500", "154153.462500", "154155.462500", "154157.462500", "154159.462500", "154201.462500", "154203.462500", "154205.462500", "154207.462500", "154209.462500", "154211.462500", "154213.462500", "154215.462500", "154217.462500", "154219.462500", "154221.462500", "154223.462500", "154225.462500", "154227.462500", "154229.462500", "154231.462500", "154233.462500", "154235.462500", "154237.462500", "154239.462500", "154241.462500", "154243.462500", "154245.462500", "154247.462500", "154249.462500", "154251.462500", "154253.462500", "154255.462500", "154257.462500", "154259.462500", "154301.462500", "154303.462500", "154305.462500", "154307.462500", "154309.462500", "154311.462500", "154313.462500", "154315.462500", "154317.462500", "154319.462500", "154321.462500", "154323.462500", "154325.462500", "154327.462500", "154329.462500", "154331.462500", "154333.462500", "154335.462500", "154337.462500", "154339.462500", "154341.462500", "154343.462500", "154345.462500", "154347.462500", "154349.462500", "154351.462500", "154353.462500", "154355.462500", "154357.462500", "154359.462500", "154401.462500", "154403.462500", "154405.462500", "154407.462500", "154409.462500", "154411.462500", "154413.462500", "154415.462500", "154417.462500", "154419.462500", "154421.462500", "154423.462500", "154425.462500", "154427.462500", "154429.462500", "154431.462500", "154433.462500", "154435.462500", "154437.462500", "154439.462500", "154441.462500", "154443.462500", "154445.462500", "154447.462500", "154449.462500", "154451.462500", "154453.462500", "154455.462500", "154457.462500", "154459.462500", "154501.462500", "154503.462500", "154505.462500", "154507.462500", "154509.462500", "154511.462500", "154513.462500", "154515.462500", "154517.462500", "154519.462500", "154521.462500", "154523.462500", "154525.462500", "154527.462500", "154529.462500", "154531.462500", "154533.462500", "154535.462500", "154537.462500", "154539.462500", "154541.462500", "154543.462500", "154545.462500", "154547.462500", "154549.462500", "154551.462500", "154553.462500", "154555.462500", "154557.462500", "154559.462500", "154601.462500", "154603.462500", "154605.462500", "154607.462500", "154609.462500", "154611.462500", "154613.462500", "154615.462500", "154617.462500", "154619.462500", "154621.462500", "154623.462500", "154625.462500", "154627.462500", "154629.462500", "154631.462500", "154633.462500", "154635.462500", "154637.462500", "154639.462500", "154641.462500", "154643.462500", "154645.462500", "154647.462500", "154649.462500", "154651.462500", "154653.462500", "154655.462500", "154657.462500", "154659.462500", "154701.462500", "154703.462500", "154705.462500", "154707.462500", "154709.462500", "154711.462500", "154713.462500", "154715.462500", "154717.462500", "154719.462500", "154721.462500", "154723.462500", "154725.462500", "154727.462500", "154729.462500", "154731.462500", "154733.462500", "154735.462500", "154737.462500", "154739.462500"],
      "ContentTime": ["153707.951000", "153707.955000", "153707.958000", "153707.970000", "153707.973000", "153707.980000", "153707.983000", "153707.986000", "153707.989000", "153707.991000", "153707.994000", "153707.997000", "153708.001000", "153708.003000", "153708.006000", "153708.012000", "153708.015000", "153708.018000", "153708.021000", "153708.024000", "153708.027000", "153708.029000", "153708.032000", "153708.035000", "153747.946000", "153747.949000", "153747.951000", "153747.954000", "153747.957000", "153747.960000", "153747.962000", "153747.965000", "153747.968000", "153747.976000", "153747.979000", "153747.982000", "153747.985000", "153747.987000", "153747.990000", "153747.993000", "153747.996000", "153747.998000", "153748.002000", "153748.005000", "153827.946000", "153827.949000", "153827.951000", "153827.954000", "153827.957000", "153827.960000", "153827.962000", "153827.965000", "153827.968000", "153827.971000", "153827.973000", "153827.976000", "153827.979000", "153827.982000", "153827.984000", "153827.987000", "153827.990000", "153828.003000", "153828.005000", "153828.008000", "153907.947000", "153907.950000", "153907.953000", "153907.955000", "153907.971000", "153907.974000", "153907.976000", "153907.979000", "153907.982000", "153907.985000", "153907.987000", "153907.990000", "153907.993000", "153907.996000", "153907.998000", "153908.002000", "153908.005000", "153908.008000", "153908.011000", "153908.013000", "153947.947000", "153947.950000", "153947.952000", "153947.955000", "153947.958000", "153947.961000", "153947.963000", "153947.966000", "153947.969000", "153947.972000", "153947.975000", "153947.977000", "153947.980000", "153947.983000", "153947.986000", "153947.988000", "153947.991000", "153947.994000", "153947.997000", "153948.001000", "154027.946000", "154027.949000", "154027.951000", "154027.954000", "154027.957000", "154027.960000", "154027.963000", "154027.965000", "154027.968000", "154027.971000", "154027.974000", "154027.976000", "154027.979000", "154027.982000", "154027.985000", "154027.988000", "154027.990000", "154027.993000", "154027.996000", "154028.000000", "154107.946000", "154107.949000", "154107.951000", "154107.954000", "154107.957000", "154107.960000", "154107.962000", "154107.969000", "154107.972000", "154107.975000", "154107.978000", "154107.981000", "154107.983000", "154107.991000", "154107.994000", "154107.997000", "154108.001000", "154108.003000", "154108.006000", "154108.009000", "154147.947000", "154147.950000", "154147.952000", "154147.955000", "154147.958000", "154147.961000", "154147.963000", "154147.966000", "154147.969000", "154147.972000", "154147.975000", "154147.977000", "154147.980000", "154147.987000", "154147.990000", "154147.993000", "154147.996000", "154147.998000", "154148.002000", "154148.005000", "154207.947000", "154207.950000", "154207.953000", "154207.955000", "154207.958000", "154207.961000", "154207.964000", "154207.966000", "154207.969000", "154207.972000", "154247.946000", "154247.949000", "154247.952000", "154247.954000", "154247.957000", "154247.960000", "154247.963000", "154247.965000", "154247.968000", "154247.971000", "154247.974000", "154247.976000", "154247.979000", "154247.982000", "154247.985000", "154247.988000", "154247.990000", "154247.993000", "154247.996000", "154247.998000", "154327.946000", "154327.949000", "154327.952000", "154327.954000", "154327.957000", "154327.960000", "154327.963000", "154327.965000", "154327.968000", "154327.971000", "154327.974000", "154327.977000", "154327.979000", "154327.983000", "154327.986000", "154327.989000", "154327.991000", "154327.994000", "154327.997000", "154328.000000", "154407.947000", "154407.950000", "154407.953000", "154407.955000", "154407.958000", "154407.961000", "154407.964000", "154407.967000", "154407.969000", "154407.972000", "154407.975000", "154407.978000", "154407.980000", "154407.983000", "154407.986000", "154407.989000", "154407.991000", "154407.994000", "154407.997000", "154408.001000", "154447.946000", "154447.949000", "154447.952000", "154447.954000", "154447.957000", "154447.960000", "154447.963000", "154447.966000", "154447.968000", "154447.971000", "154447.974000", "154447.977000", "154447.979000", "154447.982000", "154447.985000", "154447.988000", "154447.991000", "154447.993000", "154447.996000", "154448.000000", "154527.946000", "154527.949000", "154527.952000", "154527.954000", "154527.957000", "154527.960000", "154527.963000", "154527.965000", "154527.968000", "154527.971000", "154527.974000", "154527.976000", "154527.979000", "154527.982000", "154527.985000", "154527.987000", "154527.990000", "154527.993000", "154527.996000", "154527.998000", "154607.947000", "154607.950000", "154607.953000", "154607.955000", "154607.958000", "154607.961000", "154607.964000", "154607.967000", "154607.969000", "154607.972000", "154607.975000", "154607.978000", "154607.980000", "154607.983000", "154607.986000", "154607.989000", "154607.991000", "154607.994000", "154607.997000", "154608.001000", "154647.947000", "154647.950000", "154647.953000", "154647.955000", "154647.958000", "154647.961000", "154647.964000", "154647.966000", "154647.969000", "154647.972000", "154647.975000", "154647.978000", "154647.980000", "154647.983000", "154647.986000", "154647.989000", "154647.991000", "154647.994000", "154647.997000", "154648.001000", "154727.946000", "154727.949000", "154727.952000", "154727.955000", "154727.957000", "154727.960000", "154727.963000", "154727.966000", "154727.968000", "154727.971000", "154727.974000", "154727.977000", "154727.979000", "154727.982000", "154727.985000", "154727.988000", "154727.991000", "154727.998000", "154728.001000", "154728.004000", "154740.628000", "154740.631000", "154740.634000", "154740.637000", "154740.640000", "154740.643000", "154740.646000"],
      "DataSetTrailingPadding": [
        "\u0000\u0000\u0000\u0000\u0000\u0000\u0000\u0000\u0000\u0000\u0000\u0000\u0000\u0000\u0000\u0000\u0000\u0000\u0000\u0000\u0000\u0000\u0000\u0000\u0000\u0000\u0000\u0000\u0000\u0000\u0000\u0000\u0000\u0000\u0000\u0000\u0000\u0000\u0000\u0000\u0000\u0000\u0000\u0000\u0000\u0000\u0000\u0000\u0000\u0000\u0000\u0000\u0000\u0000\u0000\u0000\u0000\u0000\u0000\u0000\u0000\u0000\u0000\u0000\u0000\u0000\u0000\u0000\u0000\u0000\u0000\u0000\u0000\u0000\u0000\u0000\u0000\u0000\u0000\u0000\u0000\u0000\u0000\u0000\u0000\u0000\u0000\u0000\u0000\u0000\u0000\u0000",
        "\u0000\u0000\u0000\u0000\u0000\u0000\u0000\u0000\u0000\u0000\u0000\u0000\u0000\u0000\u0000\u0000\u0000\u0000\u0000\u0000\u0000\u0000\u0000\u0000\u0000\u0000\u0000\u0000\u0000\u0000\u0000\u0000\u0000\u0000\u0000\u0000\u0000\u0000\u0000\u0000\u0000\u0000\u0000\u0000\u0000\u0000\u0000\u0000\u0000\u0000\u0000\u0000\u0000\u0000\u0000\u0000\u0000\u0000\u0000\u0000\u0000\u0000\u0000\u0000\u0000\u0000\u0000\u0000\u0000\u0000\u0000\u0000\u0000\u0000\u0000\u0000\u0000\u0000\u0000\u0000\u0000\u0000\u0000\u0000\u0000\u0000\u0000\u0000\u0000\u0000\u0000\u0000\u0000\u0000",
        "\u0000\u0000\u0000\u0000\u0000\u0000\u0000\u0000\u0000\u0000\u0000\u0000\u0000\u0000\u0000\u0000\u0000\u0000\u0000\u0000\u0000\u0000\u0000\u0000\u0000\u0000\u0000\u0000\u0000\u0000\u0000\u0000\u0000\u0000\u0000\u0000\u0000\u0000\u0000\u0000\u0000\u0000\u0000\u0000\u0000\u0000\u0000\u0000\u0000\u0000\u0000\u0000\u0000\u0000\u0000\u0000\u0000\u0000\u0000\u0000\u0000\u0000\u0000\u0000\u0000\u0000\u0000\u0000\u0000\u0000\u0000\u0000\u0000\u0000\u0000\u0000\u0000\u0000\u0000\u0000\u0000\u0000\u0000\u0000\u0000\u0000\u0000\u0000\u0000\u0000\u0000\u0000\u0000\u0000",
        "\u0000\u0000\u0000\u0000\u0000\u0000\u0000\u0000\u0000\u0000\u0000\u0000\u0000\u0000\u0000\u0000\u0000\u0000\u0000\u0000\u0000\u0000\u0000\u0000\u0000\u0000\u0000\u0000\u0000\u0000\u0000\u0000\u0000\u0000\u0000\u0000\u0000\u0000\u0000\u0000\u0000\u0000\u0000\u0000\u0000\u0000\u0000\u0000\u0000\u0000\u0000\u0000\u0000\u0000\u0000\u0000\u0000\u0000\u0000\u0000\u0000\u0000\u0000\u0000\u0000\u0000\u0000\u0000\u0000\u0000\u0000\u0000\u0000\u0000\u0000\u0000\u0000\u0000\u0000\u0000\u0000\u0000\u0000\u0000\u0000\u0000\u0000\u0000\u0000\u0000\u0000\u0000",
        "\u0000\u0000\u0000\u0000\u0000\u0000\u0000\u0000\u0000\u0000\u0000\u0000\u0000\u0000\u0000\u0000\u0000\u0000\u0000\u0000\u0000\u0000\u0000\u0000\u0000\u0000\u0000\u0000\u0000\u0000\u0000\u0000\u0000\u0000\u0000\u0000\u0000\u0000\u0000\u0000\u0000\u0000\u0000\u0000\u0000\u0000\u0000\u0000\u0000\u0000\u0000\u0000\u0000\u0000\u0000\u0000\u0000\u0000\u0000\u0000\u0000\u0000\u0000\u0000\u0000\u0000\u0000\u0000\u0000\u0000\u0000\u0000\u0000\u0000\u0000\u0000\u0000\u0000\u0000\u0000\u0000\u0000\u0000\u0000\u0000\u0000\u0000\u0000\u0000\u0000\u0000\u0000",
        "\u0000\u0000\u0000\u0000\u0000\u0000\u0000\u0000\u0000\u0000\u0000\u0000\u0000\u0000\u0000\u0000\u0000\u0000\u0000\u0000\u0000\u0000\u0000\u0000\u0000\u0000\u0000\u0000\u0000\u0000\u0000\u0000\u0000\u0000\u0000\u0000\u0000\u0000\u0000\u0000\u0000\u0000\u0000\u0000\u0000\u0000\u0000\u0000\u0000\u0000\u0000\u0000\u0000\u0000\u0000\u0000\u0000\u0000\u0000\u0000\u0000\u0000\u0000\u0000\u0000\u0000\u0000\u0000\u0000\u0000\u0000\u0000\u0000\u0000\u0000\u0000\u0000\u0000\u0000\u0000\u0000\u0000\u0000\u0000\u0000\u0000\u0000\u0000\u0000\u0000\u0000\u0000\u0000\u0000",
        "\u0000\u0000\u0000\u0000\u0000\u0000\u0000\u0000\u0000\u0000\u0000\u0000\u0000\u0000\u0000\u0000\u0000\u0000\u0000\u0000\u0000\u0000\u0000\u0000\u0000\u0000\u0000\u0000\u0000\u0000\u0000\u0000\u0000\u0000\u0000\u0000\u0000\u0000\u0000\u0000\u0000\u0000\u0000\u0000\u0000\u0000\u0000\u0000\u0000\u0000\u0000\u0000\u0000\u0000\u0000\u0000\u0000\u0000\u0000\u0000\u0000\u0000\u0000\u0000\u0000\u0000\u0000\u0000\u0000\u0000\u0000\u0000\u0000\u0000\u0000\u0000\u0000\u0000\u0000\u0000\u0000\u0000\u0000\u0000\u0000\u0000\u0000\u0000\u0000\u0000\u0000\u0000\u0000\u0000",
        "\u0000\u0000\u0000\u0000\u0000\u0000\u0000\u0000\u0000\u0000\u0000\u0000\u0000\u0000\u0000\u0000\u0000\u0000\u0000\u0000\u0000\u0000\u0000\u0000\u0000\u0000\u0000\u0000\u0000\u0000\u0000\u0000\u0000\u0000\u0000\u0000\u0000\u0000\u0000\u0000\u0000\u0000\u0000\u0000\u0000\u0000\u0000\u0000\u0000\u0000\u0000\u0000\u0000\u0000\u0000\u0000\u0000\u0000\u0000\u0000\u0000\u0000\u0000\u0000\u0000\u0000\u0000\u0000\u0000\u0000\u0000\u0000\u0000\u0000\u0000\u0000\u0000\u0000\u0000\u0000\u0000\u0000\u0000\u0000\u0000\u0000\u0000\u0000\u0000\u0000\u0000\u0000\u0000\u0000",
        "\u0000\u0000\u0000\u0000\u0000\u0000\u0000\u0000\u0000\u0000\u0000\u0000\u0000\u0000\u0000\u0000\u0000\u0000\u0000\u0000\u0000\u0000\u0000\u0000\u0000\u0000\u0000\u0000\u0000\u0000\u0000\u0000\u0000\u0000\u0000\u0000\u0000\u0000\u0000\u0000\u0000\u0000\u0000\u0000\u0000\u0000\u0000\u0000\u0000\u0000\u0000\u0000\u0000\u0000\u0000\u0000\u0000\u0000\u0000\u0000\u0000\u0000\u0000\u0000\u0000\u0000\u0000\u0000\u0000\u0000\u0000\u0000\u0000\u0000\u0000\u0000\u0000\u0000\u0000\u0000\u0000\u0000\u0000\u0000\u0000\u0000\u0000\u0000\u0000\u0000\u0000\u0000",
        "\u0000\u0000\u0000\u0000\u0000\u0000\u0000\u0000\u0000\u0000\u0000\u0000\u0000\u0000\u0000\u0000\u0000\u0000\u0000\u0000\u0000\u0000\u0000\u0000\u0000\u0000\u0000\u0000\u0000\u0000\u0000\u0000\u0000\u0000\u0000\u0000\u0000\u0000\u0000\u0000\u0000\u0000\u0000\u0000\u0000\u0000\u0000\u0000\u0000\u0000\u0000\u0000\u0000\u0000\u0000\u0000\u0000\u0000\u0000\u0000\u0000\u0000\u0000\u0000\u0000\u0000\u0000\u0000\u0000\u0000\u0000\u0000\u0000\u0000\u0000\u0000\u0000\u0000\u0000\u0000\u0000\u0000\u0000\u0000\u0000\u0000\u0000\u0000\u0000\u0000\u0000\u0000\u0000\u0000",
        "\u0000\u0000\u0000\u0000\u0000\u0000\u0000\u0000\u0000\u0000\u0000\u0000\u0000\u0000\u0000\u0000\u0000\u0000\u0000\u0000\u0000\u0000\u0000\u0000\u0000\u0000\u0000\u0000\u0000\u0000\u0000\u0000\u0000\u0000\u0000\u0000\u0000\u0000\u0000\u0000\u0000\u0000\u0000\u0000\u0000\u0000\u0000\u0000\u0000\u0000\u0000\u0000\u0000\u0000\u0000\u0000\u0000\u0000\u0000\u0000\u0000\u0000\u0000\u0000\u0000\u0000\u0000\u0000\u0000\u0000\u0000\u0000\u0000\u0000\u0000\u0000\u0000\u0000\u0000\u0000\u0000\u0000\u0000\u0000\u0000\u0000\u0000\u0000\u0000\u0000\u0000\u0000\u0000\u0000",
        "\u0000\u0000\u0000\u0000\u0000\u0000\u0000\u0000\u0000\u0000\u0000\u0000\u0000\u0000\u0000\u0000\u0000\u0000\u0000\u0000\u0000\u0000\u0000\u0000\u0000\u0000\u0000\u0000\u0000\u0000\u0000\u0000\u0000\u0000\u0000\u0000\u0000\u0000\u0000\u0000\u0000\u0000\u0000\u0000\u0000\u0000\u0000\u0000\u0000\u0000\u0000\u0000\u0000\u0000\u0000\u0000\u0000\u0000\u0000\u0000\u0000\u0000\u0000\u0000\u0000\u0000\u0000\u0000\u0000\u0000\u0000\u0000\u0000\u0000\u0000\u0000\u0000\u0000\u0000\u0000\u0000\u0000\u0000\u0000\u0000\u0000\u0000\u0000\u0000\u0000\u0000\u0000\u0000\u0000",
        "\u0000\u0000\u0000\u0000\u0000\u0000\u0000\u0000\u0000\u0000\u0000\u0000\u0000\u0000\u0000\u0000\u0000\u0000\u0000\u0000\u0000\u0000\u0000\u0000\u0000\u0000\u0000\u0000\u0000\u0000\u0000\u0000\u0000\u0000\u0000\u0000\u0000\u0000\u0000\u0000\u0000\u0000\u0000\u0000\u0000\u0000\u0000\u0000\u0000\u0000\u0000\u0000\u0000\u0000\u0000\u0000\u0000\u0000\u0000\u0000\u0000\u0000\u0000\u0000\u0000\u0000\u0000\u0000\u0000\u0000\u0000\u0000\u0000\u0000\u0000\u0000\u0000\u0000\u0000\u0000\u0000\u0000\u0000\u0000\u0000\u0000\u0000\u0000\u0000\u0000\u0000\u0000\u0000\u0000",
        "\u0000\u0000\u0000\u0000\u0000\u0000\u0000\u0000\u0000\u0000\u0000\u0000\u0000\u0000\u0000\u0000\u0000\u0000\u0000\u0000\u0000\u0000\u0000\u0000\u0000\u0000\u0000\u0000\u0000\u0000\u0000\u0000\u0000\u0000\u0000\u0000\u0000\u0000\u0000\u0000\u0000\u0000\u0000\u0000\u0000\u0000\u0000\u0000\u0000\u0000\u0000\u0000\u0000\u0000\u0000\u0000\u0000\u0000\u0000\u0000\u0000\u0000\u0000\u0000\u0000\u0000\u0000\u0000\u0000\u0000\u0000\u0000\u0000\u0000\u0000\u0000\u0000\u0000\u0000\u0000\u0000\u0000\u0000\u0000\u0000\u0000\u0000\u0000\u0000\u0000\u0000\u0000\u0000\u0000",
        "\u0000\u0000\u0000\u0000\u0000\u0000\u0000\u0000\u0000\u0000\u0000\u0000\u0000\u0000\u0000\u0000\u0000\u0000\u0000\u0000\u0000\u0000\u0000\u0000\u0000\u0000\u0000\u0000\u0000\u0000\u0000\u0000\u0000\u0000\u0000\u0000\u0000\u0000\u0000\u0000\u0000\u0000\u0000\u0000\u0000\u0000\u0000\u0000\u0000\u0000\u0000\u0000\u0000\u0000\u0000\u0000\u0000\u0000\u0000\u0000\u0000\u0000\u0000\u0000\u0000\u0000\u0000\u0000\u0000\u0000\u0000\u0000\u0000\u0000\u0000\u0000\u0000\u0000\u0000\u0000\u0000\u0000\u0000\u0000\u0000\u0000\u0000\u0000\u0000\u0000\u0000\u0000\u0000\u0000",
        "\u0000\u0000\u0000\u0000\u0000\u0000\u0000\u0000\u0000\u0000\u0000\u0000\u0000\u0000\u0000\u0000\u0000\u0000\u0000\u0000\u0000\u0000\u0000\u0000\u0000\u0000\u0000\u0000\u0000\u0000\u0000\u0000\u0000\u0000\u0000\u0000\u0000\u0000\u0000\u0000\u0000\u0000\u0000\u0000\u0000\u0000\u0000\u0000\u0000\u0000\u0000\u0000\u0000\u0000\u0000\u0000\u0000\u0000\u0000\u0000\u0000\u0000\u0000\u0000\u0000\u0000\u0000\u0000\u0000\u0000\u0000\u0000\u0000\u0000\u0000\u0000\u0000\u0000\u0000\u0000\u0000\u0000\u0000\u0000\u0000\u0000\u0000\u0000\u0000\u0000\u0000\u0000\u0000\u0000",
        "\u0000\u0000\u0000\u0000\u0000\u0000\u0000\u0000\u0000\u0000\u0000\u0000\u0000\u0000\u0000\u0000\u0000\u0000\u0000\u0000\u0000\u0000\u0000\u0000\u0000\u0000\u0000\u0000\u0000\u0000\u0000\u0000\u0000\u0000\u0000\u0000\u0000\u0000\u0000\u0000\u0000\u0000\u0000\u0000\u0000\u0000\u0000\u0000\u0000\u0000\u0000\u0000\u0000\u0000\u0000\u0000\u0000\u0000\u0000\u0000\u0000\u0000\u0000\u0000\u0000\u0000\u0000\u0000\u0000\u0000\u0000\u0000\u0000\u0000\u0000\u0000\u0000\u0000\u0000\u0000\u0000\u0000\u0000\u0000\u0000\u0000\u0000\u0000\u0000\u0000\u0000\u0000",
        "\u0000\u0000\u0000\u0000\u0000\u0000\u0000\u0000\u0000\u0000\u0000\u0000\u0000\u0000\u0000\u0000\u0000\u0000\u0000\u0000\u0000\u0000\u0000\u0000\u0000\u0000\u0000\u0000\u0000\u0000\u0000\u0000\u0000\u0000\u0000\u0000\u0000\u0000\u0000\u0000\u0000\u0000\u0000\u0000\u0000\u0000\u0000\u0000\u0000\u0000\u0000\u0000\u0000\u0000\u0000\u0000\u0000\u0000\u0000\u0000\u0000\u0000\u0000\u0000\u0000\u0000\u0000\u0000\u0000\u0000\u0000\u0000\u0000\u0000\u0000\u0000\u0000\u0000\u0000\u0000\u0000\u0000\u0000\u0000\u0000\u0000\u0000\u0000\u0000\u0000\u0000\u0000\u0000\u0000",
        "\u0000\u0000\u0000\u0000\u0000\u0000\u0000\u0000\u0000\u0000\u0000\u0000\u0000\u0000\u0000\u0000\u0000\u0000\u0000\u0000\u0000\u0000\u0000\u0000\u0000\u0000\u0000\u0000\u0000\u0000\u0000\u0000\u0000\u0000\u0000\u0000\u0000\u0000\u0000\u0000\u0000\u0000\u0000\u0000\u0000\u0000\u0000\u0000\u0000\u0000\u0000\u0000\u0000\u0000\u0000\u0000\u0000\u0000\u0000\u0000\u0000\u0000\u0000\u0000\u0000\u0000\u0000\u0000\u0000\u0000\u0000\u0000\u0000\u0000\u0000\u0000\u0000\u0000\u0000\u0000\u0000\u0000\u0000\u0000\u0000\u0000\u0000\u0000\u0000\u0000\u0000\u0000",
