{
  "AcquisitionMatrixPE": 70,
  "AcquisitionNumber": 1,
  "AcquisitionTime": "15:41:58.022500",
  "BandwidthPerPixelPhaseEncode": 51.948,
  "BaseResolution": 70,
  "BodyPartExamined": "HEAD",
  "CoilCombinationMethod": "Sum of Squares",
  "ConsistencyInfo": "N4_VE11C_LATEST_20160120",
  "ConversionSoftware": "dcm2niix",
  "ConversionSoftwareVersion": "v1.0.20220720",
  "DerivedVendorReportedEchoSpacing": 0.000550001,
  "DeviceSerialNumber": "66061",
  "DwellTime": 3.3e-06,
  "EchoTime": 0.022,
  "EchoTrainLength": 35,
  "EffectiveEchoSpacing": 0.000275,
  "FlipAngle": 90,
  "HeudiconvVersion": "1.1.1",
  "ImageOrientationPatientDICOM": [0.999946, 0.00309435, 0.00989267, -0.00122161, 0.98293, -0.183973],
  "ImageOrientationText": "Tra>Cor(-10.6)>Sag(0.6)",
  "ImageType": [
    "ORIGINAL",
    "PRIMARY",
    "M",
    "ND",
    "NORM",
    "MOSAIC"
],
  "ImagingFrequency": 123.255,
  "InPlanePhaseEncodingDirectionDICOM": "COL",
  "InstitutionAddress": "Street StreetNo,City/1c4204/,District,KR,ZIP",
  "InstitutionName": "SKKU",
  "InstitutionalDepartmentName": "Department",
  "MRAcquisitionType": "2D",
  "MagneticFieldStrength": 3,
  "Manufacturer": "Siemens",
  "ManufacturersModelName": "Prisma",
  "MatrixCoilMode": "GRAPPA",
  "Modality": "MR",
  "NonlinearGradientCorrection": false,
  "ParallelReductionFactorInPlane": 2,
  "PartialFourier": 1,
  "PatientPosition": "HFS",
  "PercentPhaseFOV": 100,
  "PercentSampling": 100,
  "PhaseEncodingDirection": "j-",
  "PhaseEncodingSteps": 70,
  "PhaseResolution": 1,
  "PixelBandwidth": 2165,
  "ProcedureStepDescription": "Head^PI:Others",
  "ProtocolName": "BOLD_ep2d_3x3x3_response2",
  "PulseSequenceDetails": "%SiemensSeq%\\ep2d_pace",
  "ReceiveCoilActiveElements": "HC1-7",
  "ReceiveCoilName": "HeadNeck_64",
  "ReconMatrixPE": 70,
  "RefLinesPE": 24,
  "RepetitionTime": 2,
  "SAR": 0.145648,
  "ScanOptions": "FS",
  "ScanningSequence": "EP",
  "SequenceName": "*epfid2d1_70",
  "SequenceVariant": "SK",
  "SeriesDescription": "BOLD_ep2d_3x3x3_response2",
  "SeriesNumber": 9,
  "ShimSetting": [5048, 3755, 4484, 353, -63, -37, -36, 73],
  "SliceThickness": 3,
  "SliceTiming": [0.99, 0, 1.0375, 0.0475, 1.085, 0.095, 1.13, 0.1425, 1.1775, 0.1875, 1.225, 0.235, 1.2725, 0.2825, 1.32, 0.33, 1.3675, 0.3775, 1.415, 0.425, 1.46, 0.47, 1.5075, 0.5175, 1.555, 0.565, 1.6025, 0.6125, 1.65, 0.66, 1.6975, 0.7075, 1.745, 0.755, 1.79, 0.8, 1.8375, 0.8475, 1.885, 0.895, 1.9325, 0.9425],
  "SoftwareVersions": "syngo MR E11",
  "SpacingBetweenSlices": 3,
  "StationName": "AWP66061",
  "TaskName": "response",
  "TotalReadoutTime": 0.018975,
  "TxRefAmp": 256.986,
  "dcmmeta_affine": [
    [-2.9998388290405273, -0.003664826275780797, 0.030879246070981026, 103.97676086425781],
    [-0.009283047169446945, 2.94879150390625, -0.5518540143966675, -87.41036224365234],
    [0.02967800199985504, 0.5519199371337891, 2.9486443996429443, -73.54562377929688],
    [0.0, 0.0, 0.0, 1.0]
],
  "dcmmeta_reorient_transform": [
    [0.0, -1.0, 0.0, 69.0],
    [1.0, 0.0, 0.0, 0.0],
    [0.0, 0.0, -1.0, 41.0],
    [0.0, 0.0, 0.0, 1.0]
],
  "dcmmeta_shape": [70, 70, 42, 341],
  "dcmmeta_slice_dim": 2,
  "dcmmeta_version": 0.6,
  "global": {
    "const": {
      "AcquisitionMatrix": [70, 0, 0, 70],
      "AngioFlag": "N",
      "BitsAllocated": 16,
      "BitsStored": 12,
      "BodyPartExamined": "HEAD",
      "Columns": 490,
      "EchoNumbers": 1,
      "EchoTime": 22.0,
      "EchoTrainLength": 35,
      "FlipAngle": 90.0,
      "HighBit": 11,
      "ImageOrientationPatient": [0.9999462786228, 0.0030943490544, 0.00989266760551, -0.0012216087352, 0.9829304785944, -0.1839733185065],
      "ImagePositionPatient": [-734.18647865242, -714.62586947665, 195.10207992587],
      "ImageType": [
        "ORIGINAL",
        "PRIMARY",
        "M",
        "ND",
        "NORM",
        "MOSAIC"
],
      "ImagedNucleus": "1H",
      "ImagingFrequency": 123.254549,
      "InPlanePhaseEncodingDirection": "COL",
      "MRAcquisitionType": "2D",
      "MagneticFieldStrength": 3.0,
      "Manufacturer": "SIEMENS",
      "ManufacturerModelName": "Prisma",
      "Modality": "MR",
      "NumberOfAverages": 1.0,
      "NumberOfPhaseEncodingSteps": 70,
      "PercentPhaseFieldOfView": 100.0,
      "PercentSampling": 100.0,
      "PerformedProcedureStepStartTime": "144314.812000",
      "PhotometricInterpretation": "MONOCHROME2",
      "PixelBandwidth": 2165.0,
      "PixelRepresentation": 0,
      "PixelSpacing": [3.0, 3.0],
      "ProtocolName": "BOLD_ep2d_3x3x3_response2",
      "RepetitionTime": 2000.0,
      "Rows": 490,
      "SAR": 0.14564782133028,
      "SamplesPerPixel": 1,
      "ScanOptions": "FS",
      "ScanningSequence": "EP",
      "SequenceName": "*epfid2d1_70",
      "SequenceVariant": "SK",
      "SeriesDescription": "BOLD_ep2d_3x3x3_response2",
      "SeriesNumber": 9,
      "SeriesTime": "154243.606000",
      "SliceLocation": 67.862864201199,
      "SliceThickness": 3.0,
      "SmallestImagePixelValue": 0,
      "SoftwareVersions": "syngo MR E11",
      "SpacingBetweenSlices": 2.9999999529531,
      "SpecificCharacterSet": "ISO_IR 100",
      "StudyID": "1",
      "StudyTime": "144314.744000",
      "TransmitCoilName": "Body",
      "VariableFlipAngleFlag": "N",
      "WindowCenterWidthExplanation": "Algo1",
      "dBdt": 0.0},
    "slices": {}
  },
  "time": {
    "samples": {
      "AcquisitionNumber": [1, 2, 3, 4, 5, 6, 7, 8, 9, 10, 11, 12, 13, 14, 15, 16, 17, 18, 19, 20, 21, 22, 23, 24, 25, 26, 27, 28, 29, 30, 31, 32, 33, 34, 35, 36, 37, 38, 39, 40, 41, 42, 43, 44, 45, 46, 47, 48, 49, 50, 51, 52, 53, 54, 55, 56, 57, 58, 59, 60, 61, 62, 63, 64, 65, 66, 67, 68, 69, 70, 71, 72, 73, 74, 75, 76, 77, 78, 79, 80, 81, 82, 83, 84, 85, 86, 87, 88, 89, 90, 91, 92, 93, 94, 95, 96, 97, 98, 99, 100, 101, 102, 103, 104, 105, 106, 107, 108, 109, 110, 111, 112, 113, 114, 115, 116, 117, 118, 119, 120, 121, 122, 123, 124, 125, 126, 127, 128, 129, 130, 131, 132, 133, 134, 135, 136, 137, 138, 139, 140, 141, 142, 143, 144, 145, 146, 147, 148, 149, 150, 151, 152, 153, 154, 155, 156, 157, 158, 159, 160, 161, 162, 163, 164, 165, 166, 167, 168, 169, 170, 171, 172, 173, 174, 175, 176, 177, 178, 179, 180, 181, 182, 183, 184, 185, 186, 187, 188, 189, 190, 191, 192, 193, 194, 195, 196, 197, 198, 199, 200, 201, 202, 203, 204, 205, 206, 207, 208, 209, 210, 211, 212, 213, 214, 215, 216, 217, 218, 219, 220, 221, 222, 223, 224, 225, 226, 227, 228, 229, 230, 231, 232, 233, 234, 235, 236, 237, 238, 239, 240, 241, 242, 243, 244, 245, 246, 247, 248, 249, 250, 251, 252, 253, 254, 255, 256, 257, 258, 259, 260, 261, 262, 263, 264, 265, 266, 267, 268, 269, 270, 271, 272, 273, 274, 275, 276, 277, 278, 279, 280, 281, 282, 283, 284, 285, 286, 287, 288, 289, 290, 291, 292, 293, 294, 295, 296, 297, 298, 299, 300, 301, 302, 303, 304, 305, 306, 307, 308, 309, 310, 311, 312, 313, 314, 315, 316, 317, 318, 319, 320, 321, 322, 323, 324, 325, 326, 327, 328, 329, 330, 331, 332, 333, 334, 335, 336, 337, 338, 339, 340, 341],
      "AcquisitionTime": ["154158.022500", "154200.022500", "154202.022500", "154204.022500", "154206.022500", "154208.022500", "154210.022500", "154212.022500", "154214.022500", "154216.022500", "154218.022500", "154220.022500", "154222.022500", "154224.022500", "154226.022500", "154228.022500", "154230.022500", "154232.022500", "154234.022500", "154236.022500", "154238.022500", "154240.022500", "154242.022500", "154244.022500", "154246.022500", "154248.022500", "154250.022500", "154252.022500", "154254.022500", "154256.022500", "154258.022500", "154300.022500", "154302.022500", "154304.022500", "154306.022500", "154308.022500", "154310.022500", "154312.022500", "154314.022500", "154316.022500", "154318.022500", "154320.022500", "154322.022500", "154324.022500", "154326.022500", "154328.022500", "154330.022500", "154332.022500", "154334.022500", "154336.022500", "154338.022500", "154340.022500", "154342.022500", "154344.022500", "154346.022500", "154348.022500", "154350.022500", "154352.022500", "154354.022500", "154356.022500", "154358.022500", "154400.022500", "154402.022500", "154404.022500", "154406.022500", "154408.022500", "154410.022500", "154412.022500", "154414.022500", "154416.022500", "154418.022500", "154420.022500", "154422.022500", "154424.022500", "154426.022500", "154428.022500", "154430.022500", "154432.022500", "154434.022500", "154436.022500", "154438.022500", "154440.022500", "154442.022500", "154444.022500", "154446.022500", "154448.022500", "154450.022500", "154452.022500", "154454.022500", "154456.022500", "154458.022500", "154500.022500", "154502.022500", "154504.022500", "154506.022500", "154508.022500", "154510.022500", "154512.022500", "154514.022500", "154516.022500", "154518.022500", "154520.022500", "154522.022500", "154524.022500", "154526.022500", "154528.022500", "154530.022500", "154532.022500", "154534.022500", "154536.022500", "154538.022500", "154540.022500", "154542.022500", "154544.022500", "154546.022500", "154548.022500", "154550.022500", "154552.022500", "154554.022500", "154556.022500", "154558.022500", "154600.022500", "154602.022500", "154604.022500", "154606.022500", "154608.022500", "154610.022500", "154612.022500", "154614.022500", "154616.022500", "154618.022500", "154620.022500", "154622.022500", "154624.022500", "154626.022500", "154628.022500", "154630.022500", "154632.022500", "154634.022500", "154636.022500", "154638.022500", "154640.022500", "154642.022500", "154644.022500", "154646.022500", "154648.022500", "154650.022500", "154652.022500", "154654.022500", "154656.022500", "154658.022500", "154700.022500", "154702.022500", "154704.022500", "154706.022500", "154708.022500", "154710.022500", "154712.022500", "154714.022500", "154716.022500", "154718.022500", "154720.022500", "154722.022500", "154724.022500", "154726.022500", "154728.022500", "154730.022500", "154732.022500", "154734.022500", "154736.022500", "154738.022500", "154740.022500", "154742.022500", "154744.022500", "154746.022500", "154748.022500", "154750.022500", "154752.022500", "154754.022500", "154756.022500", "154758.022500", "154800.022500", "154802.022500", "154804.022500", "154806.022500", "154808.022500", "154810.022500", "154812.022500", "154814.022500", "154816.022500", "154818.022500", "154820.022500", "154822.022500", "154824.022500", "154826.022500", "154828.022500", "154830.022500", "154832.022500", "154834.022500", "154836.022500", "154838.022500", "154840.022500", "154842.022500", "154844.022500", "154846.022500", "154848.022500", "154850.022500", "154852.022500", "154854.022500", "154856.022500", "154858.022500", "154900.022500", "154902.022500", "154904.022500", "154906.022500", "154908.022500", "154910.022500", "154912.022500", "154914.022500", "154916.022500", "154918.022500", "154920.022500", "154922.022500", "154924.022500", "154926.022500", "154928.022500", "154930.022500", "154932.022500", "154934.022500", "154936.022500", "154938.022500", "154940.022500", "154942.022500", "154944.022500", "154946.022500", "154948.022500", "154950.022500", "154952.022500", "154954.022500", "154956.022500", "154958.022500", "155000.022500", "155002.022500", "155004.022500", "155006.022500", "155008.022500", "155010.022500", "155012.022500", "155014.022500", "155016.022500", "155018.022500", "155020.022500", "155022.022500", "155024.022500", "155026.022500", "155028.022500", "155030.022500", "155032.022500", "155034.022500", "155036.022500", "155038.022500", "155040.022500", "155042.022500", "155044.022500", "155046.022500", "155048.022500", "155050.022500", "155052.022500", "155054.022500", "155056.022500", "155058.022500", "155100.022500", "155102.022500", "155104.022500", "155106.022500", "155108.022500", "155110.022500", "155112.022500", "155114.022500", "155116.022500", "155118.022500", "155120.022500", "155122.022500", "155124.022500", "155126.022500", "155128.022500", "155130.022500", "155132.022500", "155134.022500", "155136.022500", "155138.022500", "155140.022500", "155142.022500", "155144.022500", "155146.022500", "155148.022500", "155150.022500", "155152.022500", "155154.022500", "155156.022500", "155158.022500", "155200.022500", "155202.022500", "155204.022500", "155206.022500", "155208.022500", "155210.022500", "155212.022500", "155214.022500", "155216.022500", "155218.022500", "155220.022500", "155222.022500", "155224.022500", "155226.022500", "155228.022500", "155230.022500", "155232.022500", "155234.022500", "155236.022500", "155238.022500", "155240.022500", "155242.022500", "155244.022500", "155246.022500", "155248.022500", "155250.022500", "155252.022500", "155254.022500", "155256.022500", "155258.022500", "155300.022500", "155302.022500", "155304.022500", "155306.022500", "155308.022500", "155310.022500", "155312.022500", "155314.022500", "155316.022500", "155318.022500"],
      "ContentTime": ["154243.609000", "154243.613000", "154243.619000", "154243.625000", "154243.627000", "154243.630000", "154243.633000", "154243.636000", "154243.639000", "154243.646000", "154243.649000", "154243.657000", "154243.660000", "154243.663000", "154243.665000", "154243.668000", "154243.671000", "154243.674000", "154243.677000", "154243.680000", "154243.682000", "154243.685000", "154243.688000", "154323.604000", "154323.607000", "154323.610000", "154323.612000", "154323.615000", "154323.618000", "154323.621000", "154323.623000", "154323.626000", "154323.629000", "154323.632000", "154323.634000", "154323.637000", "154323.640000", "154323.643000", "154323.646000", "154323.648000", "154323.651000", "154323.654000", "154323.657000", "154403.605000", "154403.608000", "154403.611000", "154403.613000", "154403.616000", "154403.619000", "154403.622000", "154403.624000", "154403.642000", "154403.644000", "154403.647000", "154403.650000", "154403.653000", "154403.655000", "154403.658000", "154403.670000", "154403.673000", "154403.676000", "154403.678000", "154403.681000", "154443.605000", "154443.608000", "154443.611000", "154443.613000", "154443.616000", "154443.619000", "154443.622000", "154443.625000", "154443.627000", "154443.630000", "154443.633000", "154443.636000", "154443.638000", "154443.641000", "154443.644000", "154443.647000", "154443.649000", "154443.652000", "154443.656000", "154443.659000", "154523.604000", "154523.607000", "154523.610000", "154523.612000", "154523.615000", "154523.618000", "154523.621000", "154523.623000", "154523.626000", "154523.629000", "154523.632000", "154523.634000", "154523.637000", "154523.640000", "154523.643000", "154523.645000", "154523.648000", "154523.651000", "154523.654000", "154523.657000", "154603.604000", "154603.607000", "154603.609000", "154603.612000", "154603.615000", "154603.618000", "154603.621000", "154603.623000", "154603.626000", "154603.629000", "154603.632000", "154603.634000", "154603.637000", "154603.640000", "154603.643000", "154603.645000", "154603.648000", "154603.651000", "154603.654000", "154603.657000", "154643.605000", "154643.608000", "154643.611000", "154643.613000", "154643.616000", "154643.619000", "154643.622000", "154643.625000", "154643.627000", "154643.630000", "154643.633000", "154643.636000", "154643.639000", "154643.641000", "154643.644000", "154643.647000", "154643.650000", "154643.653000", "154643.656000", "154643.658000", "154723.605000", "154723.608000", "154723.611000", "154723.614000", "154723.616000", "154723.619000", "154723.622000", "154723.624000", "154723.627000", "154723.630000", "154723.633000", "154723.636000", "154723.639000", "154723.641000", "154723.644000", "154723.647000", "154723.650000", "154723.653000", "154723.656000", "154723.658000", "154803.604000", "154803.607000", "154803.609000", "154803.612000", "154803.615000", "154803.618000", "154803.621000", "154803.624000", "154803.626000", "154803.629000", "154803.632000", "154803.635000", "154803.638000", "154803.640000", "154803.643000", "154803.646000", "154803.649000", "154803.652000", "154803.654000", "154803.657000", "154843.605000", "154843.608000", "154843.611000", "154843.613000", "154843.616000", "154843.619000", "154843.622000", "154843.625000", "154843.627000", "154843.630000", "154843.633000", "154843.636000", "154843.638000", "154843.641000", "154843.644000", "154843.647000", "154843.649000", "154843.652000", "154843.655000", "154843.658000", "154923.605000", "154923.608000", "154923.611000", "154923.614000", "154923.616000", "154923.619000", "154923.622000", "154923.625000", "154923.628000", "154923.630000", "154923.633000", "154923.636000", "154923.639000", "154923.642000", "154923.644000", "154923.647000", "154923.650000", "154923.653000", "154923.655000", "154923.658000", "155003.604000", "155003.607000", "155003.609000", "155003.612000", "155003.615000", "155003.618000", "155003.621000", "155003.624000", "155003.627000", "155003.630000", "155003.633000", "155003.635000", "155003.638000", "155003.641000", "155003.644000", "155003.646000", "155003.649000", "155003.652000", "155003.655000", "155003.657000", "155043.604000", "155043.607000", "155043.610000", "155043.613000", "155043.615000", "155043.618000", "155043.621000", "155043.624000", "155043.627000", "155043.629000", "155043.632000", "155043.635000", "155043.638000", "155043.641000", "155043.644000", "155043.646000", "155043.649000", "155043.652000", "155043.655000", "155043.658000", "155123.605000", "155123.608000", "155123.611000", "155123.613000", "155123.616000", "155123.619000", "155123.622000", "155123.625000", "155123.628000", "155123.630000", "155123.633000", "155123.636000", "155123.639000", "155123.641000", "155123.644000", "155123.647000", "155123.650000", "155123.652000", "155123.655000", "155123.658000", "155203.605000", "155203.608000", "155203.611000", "155203.614000", "155203.616000", "155203.619000", "155203.635000", "155203.638000", "155203.641000", "155203.643000", "155203.646000", "155203.649000", "155203.652000", "155203.654000", "155203.657000", "155203.660000", "155203.663000", "155203.665000", "155203.668000", "155203.671000", "155243.604000", "155243.607000", "155243.610000", "155243.613000", "155243.615000", "155243.618000", "155243.621000", "155243.624000", "155243.627000", "155243.630000", "155243.634000", "155243.636000", "155243.639000", "155243.642000", "155243.645000", "155243.648000", "155243.651000", "155243.653000", "155243.656000", "155243.659000", "155319.335000", "155319.338000", "155319.341000", "155319.344000", "155319.346000", "155319.349000", "155319.352000", "155319.355000", "155319.358000", "155319.361000", "155319.364000", "155319.368000", "155319.373000", "155319.376000", "155319.379000", "155319.382000", "155319.387000", "155319.391000"],
      "DataSetTrailingPadding": [
        "\u0000\u0000\u0000\u0000\u0000\u0000\u0000\u0000\u0000\u0000\u0000\u0000\u0000\u0000\u0000\u0000\u0000\u0000\u0000\u0000\u0000\u0000\u0000\u0000\u0000\u0000\u0000\u0000\u0000\u0000\u0000\u0000\u0000\u0000\u0000\u0000\u0000\u0000\u0000\u0000\u0000\u0000\u0000\u0000\u0000\u0000\u0000\u0000\u0000\u0000",
        "\u0000\u0000\u0000\u0000\u0000\u0000\u0000\u0000\u0000\u0000\u0000\u0000\u0000\u0000\u0000\u0000\u0000\u0000\u0000\u0000\u0000\u0000\u0000\u0000\u0000\u0000\u0000\u0000\u0000\u0000\u0000\u0000\u0000\u0000\u0000\u0000\u0000\u0000\u0000\u0000\u0000\u0000\u0000\u0000\u0000\u0000\u0000\u0000\u0000\u0000\u0000\u0000",
        "\u0000\u0000\u0000\u0000\u0000\u0000\u0000\u0000\u0000\u0000\u0000\u0000\u0000\u0000\u0000\u0000\u0000\u0000\u0000\u0000\u0000\u0000\u0000\u0000\u0000\u0000\u0000\u0000\u0000\u0000\u0000\u0000\u0000\u0000\u0000\u0000\u0000\u0000\u0000\u0000\u0000\u0000\u0000\u0000\u0000\u0000\u0000\u0000\u0000\u0000\u0000\u0000",
        "\u0000\u0000\u0000\u0000\u0000\u0000\u0000\u0000\u0000\u0000\u0000\u0000\u0000\u0000\u0000\u0000\u0000\u0000\u0000\u0000\u0000\u0000\u0000\u0000\u0000\u0000\u0000\u0000\u0000\u0000\u0000\u0000\u0000\u0000\u0000\u0000\u0000\u0000\u0000\u0000\u0000\u0000\u0000\u0000\u0000\u0000\u0000\u0000\u0000\u0000\u0000\u0000",
        "\u0000\u0000\u0000\u0000\u0000\u0000\u0000\u0000\u0000\u0000\u0000\u0000\u0000\u0000\u0000\u0000\u0000\u0000\u0000\u0000\u0000\u0000\u0000\u0000\u0000\u0000\u0000\u0000\u0000\u0000\u0000\u0000\u0000\u0000\u0000\u0000\u0000\u0000\u0000\u0000\u0000\u0000\u0000\u0000\u0000\u0000\u0000\u0000\u0000\u0000",
        "\u0000\u0000\u0000\u0000\u0000\u0000\u0000\u0000\u0000\u0000\u0000\u0000\u0000\u0000\u0000\u0000\u0000\u0000\u0000\u0000\u0000\u0000\u0000\u0000\u0000\u0000\u0000\u0000\u0000\u0000\u0000\u0000\u0000\u0000\u0000\u0000\u0000\u0000\u0000\u0000\u0000\u0000\u0000\u0000\u0000\u0000\u0000\u0000\u0000\u0000",
        "\u0000\u0000\u0000\u0000\u0000\u0000\u0000\u0000\u0000\u0000\u0000\u0000\u0000\u0000\u0000\u0000\u0000\u0000\u0000\u0000\u0000\u0000\u0000\u0000\u0000\u0000\u0000\u0000\u0000\u0000\u0000\u0000\u0000\u0000\u0000\u0000\u0000\u0000\u0000\u0000\u0000\u0000\u0000\u0000\u0000\u0000\u0000\u0000\u0000\u0000",
        "\u0000\u0000\u0000\u0000\u0000\u0000\u0000\u0000\u0000\u0000\u0000\u0000\u0000\u0000\u0000\u0000\u0000\u0000\u0000\u0000\u0000\u0000\u0000\u0000\u0000\u0000\u0000\u0000\u0000\u0000\u0000\u0000\u0000\u0000\u0000\u0000\u0000\u0000\u0000\u0000\u0000\u0000\u0000\u0000\u0000\u0000\u0000\u0000\u0000\u0000",
        "\u0000\u0000\u0000\u0000\u0000\u0000\u0000\u0000\u0000\u0000\u0000\u0000\u0000\u0000\u0000\u0000\u0000\u0000\u0000\u0000\u0000\u0000\u0000\u0000\u0000\u0000\u0000\u0000\u0000\u0000\u0000\u0000\u0000\u0000\u0000\u0000\u0000\u0000\u0000\u0000\u0000\u0000\u0000\u0000\u0000\u0000\u0000\u0000\u0000\u0000",
        "\u0000\u0000\u0000\u0000\u0000\u0000\u0000\u0000\u0000\u0000\u0000\u0000\u0000\u0000\u0000\u0000\u0000\u0000\u0000\u0000\u0000\u0000\u0000\u0000\u0000\u0000\u0000\u0000\u0000\u0000\u0000\u0000\u0000\u0000\u0000\u0000\u0000\u0000\u0000\u0000\u0000\u0000\u0000\u0000\u0000\u0000\u0000\u0000\u0000\u0000",
        "\u0000\u0000\u0000\u0000\u0000\u0000\u0000\u0000\u0000\u0000\u0000\u0000\u0000\u0000\u0000\u0000\u0000\u0000\u0000\u0000\u0000\u0000\u0000\u0000\u0000\u0000\u0000\u0000\u0000\u0000\u0000\u0000\u0000\u0000\u0000\u0000\u0000\u0000\u0000\u0000\u0000\u0000\u0000\u0000\u0000\u0000\u0000\u0000\u0000\u0000",
        "\u0000\u0000\u0000\u0000\u0000\u0000\u0000\u0000\u0000\u0000\u0000\u0000\u0000\u0000\u0000\u0000\u0000\u0000\u0000\u0000\u0000\u0000\u0000\u0000\u0000\u0000\u0000\u0000\u0000\u0000\u0000\u0000\u0000\u0000\u0000\u0000\u0000\u0000\u0000\u0000\u0000\u0000\u0000\u0000\u0000\u0000\u0000\u0000\u0000\u0000",
        "\u0000\u0000\u0000\u0000\u0000\u0000\u0000\u0000\u0000\u0000\u0000\u0000\u0000\u0000\u0000\u0000\u0000\u0000\u0000\u0000\u0000\u0000\u0000\u0000\u0000\u0000\u0000\u0000\u0000\u0000\u0000\u0000\u0000\u0000\u0000\u0000\u0000\u0000\u0000\u0000\u0000\u0000\u0000\u0000\u0000\u0000\u0000\u0000\u0000\u0000",
        "\u0000\u0000\u0000\u0000\u0000\u0000\u0000\u0000\u0000\u0000\u0000\u0000\u0000\u0000\u0000\u0000\u0000\u0000\u0000\u0000\u0000\u0000\u0000\u0000\u0000\u0000\u0000\u0000\u0000\u0000\u0000\u0000\u0000\u0000\u0000\u0000\u0000\u0000\u0000\u0000\u0000\u0000\u0000\u0000\u0000\u0000\u0000\u0000\u0000\u0000",
        "\u0000\u0000\u0000\u0000\u0000\u0000\u0000\u0000\u0000\u0000\u0000\u0000\u0000\u0000\u0000\u0000\u0000\u0000\u0000\u0000\u0000\u0000\u0000\u0000\u0000\u0000\u0000\u0000\u0000\u0000\u0000\u0000\u0000\u0000\u0000\u0000\u0000\u0000\u0000\u0000\u0000\u0000\u0000\u0000\u0000\u0000\u0000\u0000\u0000\u0000",
        "\u0000\u0000\u0000\u0000\u0000\u0000\u0000\u0000\u0000\u0000\u0000\u0000\u0000\u0000\u0000\u0000\u0000\u0000\u0000\u0000\u0000\u0000\u0000\u0000\u0000\u0000\u0000\u0000\u0000\u0000\u0000\u0000\u0000\u0000\u0000\u0000\u0000\u0000\u0000\u0000\u0000\u0000\u0000\u0000\u0000\u0000\u0000\u0000\u0000\u0000",
        "\u0000\u0000\u0000\u0000\u0000\u0000\u0000\u0000\u0000\u0000\u0000\u0000\u0000\u0000\u0000\u0000\u0000\u0000\u0000\u0000\u0000\u0000\u0000\u0000\u0000\u0000\u0000\u0000\u0000\u0000\u0000\u0000\u0000\u0000\u0000\u0000\u0000\u0000\u0000\u0000\u0000\u0000\u0000\u0000\u0000\u0000\u0000\u0000\u0000\u0000",
        "\u0000\u0000\u0000\u0000\u0000\u0000\u0000\u0000\u0000\u0000\u0000\u0000\u0000\u0000\u0000\u0000\u0000\u0000\u0000\u0000\u0000\u0000\u0000\u0000\u0000\u0000\u0000\u0000\u0000\u0000\u0000\u0000\u0000\u0000\u0000\u0000\u0000\u0000\u0000\u0000\u0000\u0000\u0000\u0000\u0000\u0000\u0000\u0000\u0000\u0000",
        "\u0000\u0000\u0000\u0000\u0000\u0000\u0000\u0000\u0000\u0000\u0000\u0000\u0000\u0000\u0000\u0000\u0000\u0000\u0000\u0000\u0000\u0000\u0000\u0000\u0000\u0000\u0000\u0000\u0000\u0000\u0000\u0000\u0000\u0000\u0000\u0000\u0000\u0000\u0000\u0000\u0000\u0000\u0000\u0000\u0000\u0000\u0000\u0000\u0000\u0000",
        "\u0000\u0000\u0000\u0000\u0000\u0000\u0000\u0000\u0000\u0000\u0000\u0000\u0000\u0000\u0000\u0000\u0000\u0000\u0000\u0000\u0000\u0000\u0000\u0000\u0000\u0000\u0000\u0000\u0000\u0000\u0000\u0000\u0000\u0000\u0000\u0000\u0000\u0000\u0000\u0000\u0000\u0000\u0000\u0000\u0000\u0000\u0000\u0000\u0000\u0000",
        "\u0000\u0000\u0000\u0000\u0000\u0000\u0000\u0000\u0000\u0000\u0000\u0000\u0000\u0000\u0000\u0000\u0000\u0000\u0000\u0000\u0000\u0000\u0000\u0000\u0000\u0000\u0000\u0000\u0000\u0000\u0000\u0000\u0000\u0000\u0000\u0000\u0000\u0000\u0000\u0000\u0000\u0000\u0000\u0000\u0000\u0000\u0000\u0000\u0000\u0000",
        "\u0000\u0000\u0000\u0000\u0000\u0000\u0000\u0000\u0000\u0000\u0000\u0000\u0000\u0000\u0000\u0000\u0000\u0000\u0000\u0000\u0000\u0000\u0000\u0000\u0000\u0000\u0000\u0000\u0000\u0000\u0000\u0000\u0000\u0000\u0000\u0000\u0000\u0000\u0000\u0000\u0000\u0000\u0000\u0000\u0000\u0000\u0000\u0000\u0000\u0000",
        "\u0000\u0000\u0000\u0000\u0000\u0000\u0000\u0000\u0000\u0000\u0000\u0000\u0000\u0000\u0000\u0000\u0000\u0000\u0000\u0000\u0000\u0000\u0000\u0000\u0000\u0000\u0000\u0000\u0000\u0000\u0000\u0000\u0000\u0000\u0000\u0000\u0000\u0000\u0000\u0000\u0000\u0000\u0000\u0000\u0000\u0000\u0000\u0000\u0000\u0000",
        "\u0000\u0000\u0000\u0000\u0000\u0000\u0000\u0000\u0000\u0000\u0000\u0000\u0000\u0000\u0000\u0000\u0000\u0000\u0000\u0000\u0000\u0000\u0000\u0000\u0000\u0000\u0000\u0000\u0000\u0000\u0000\u0000\u0000\u0000\u0000\u0000\u0000\u0000\u0000\u0000\u0000\u0000\u0000\u0000\u0000\u0000\u0000\u0000\u0000\u0000",
        "\u0000\u0000\u0000\u0000\u0000\u0000\u0000\u0000\u0000\u0000\u0000\u0000\u0000\u0000\u0000\u0000\u0000\u0000\u0000\u0000\u0000\u0000\u0000\u0000\u0000\u0000\u0000\u0000\u0000\u0000\u0000\u0000\u0000\u0000\u0000\u0000\u0000\u0000\u0000\u0000\u0000\u0000\u0000\u0000\u0000\u0000\u0000\u0000\u0000\u0000",
        "\u0000\u0000\u0000\u0000\u0000\u0000\u0000\u0000\u0000\u0000\u0000\u0000\u0000\u0000\u0000\u0000\u0000\u0000\u0000\u0000\u0000\u0000\u0000\u0000\u0000\u0000\u0000\u0000\u0000\u0000\u0000\u0000\u0000\u0000\u0000\u0000\u0000\u0000\u0000\u0000\u0000\u0000\u0000\u0000\u0000\u0000\u0000\u0000\u0000\u0000",
        "\u0000\u0000\u0000\u0000\u0000\u0000\u0000\u0000\u0000\u0000\u0000\u0000\u0000\u0000\u0000\u0000\u0000\u0000\u0000\u0000\u0000\u0000\u0000\u0000\u0000\u0000\u0000\u0000\u0000\u0000\u0000\u0000\u0000\u0000\u0000\u0000\u0000\u0000\u0000\u0000\u0000\u0000\u0000\u0000\u0000\u0000\u0000\u0000\u0000\u0000",
        "\u0000\u0000\u0000\u0000\u0000\u0000\u0000\u0000\u0000\u0000\u0000\u0000\u0000\u0000\u0000\u0000\u0000\u0000\u0000\u0000\u0000\u0000\u0000\u0000\u0000\u0000\u0000\u0000\u0000\u0000\u0000\u0000\u0000\u0000\u0000\u0000\u0000\u0000\u0000\u0000\u0000\u0000\u0000\u0000\u0000\u0000\u0000\u0000\u0000\u0000",
        "\u0000\u0000\u0000\u0000\u0000\u0000\u0000\u0000\u0000\u0000\u0000\u0000\u0000\u0000\u0000\u0000\u0000\u0000\u0000\u0000\u0000\u0000\u0000\u0000\u0000\u0000\u0000\u0000\u0000\u0000\u0000\u0000\u0000\u0000\u0000\u0000\u0000\u0000\u0000\u0000\u0000\u0000\u0000\u0000\u0000\u0000\u0000\u0000\u0000\u0000",
        "\u0000\u0000\u0000\u0000\u0000\u0000\u0000\u0000\u0000\u0000\u0000\u0000\u0000\u0000\u0000\u0000\u0000\u0000\u0000\u0000\u0000\u0000\u0000\u0000\u0000\u0000\u0000\u0000\u0000\u0000\u0000\u0000\u0000\u0000\u0000\u0000\u0000\u0000\u0000\u0000\u0000\u0000\u0000\u0000\u0000\u0000\u0000\u0000\u0000\u0000",
        "\u0000\u0000\u0000\u0000\u0000\u0000\u0000\u0000\u0000\u0000\u0000\u0000\u0000\u0000\u0000\u0000\u0000\u0000\u0000\u0000\u0000\u0000\u0000\u0000\u0000\u0000\u0000\u0000\u0000\u0000\u0000\u0000\u0000\u0000\u0000\u0000\u0000\u0000\u0000\u0000\u0000\u0000\u0000\u0000\u0000\u0000\u0000\u0000\u0000\u0000",
        "\u0000\u0000\u0000\u0000\u0000\u0000\u0000\u0000\u0000\u0000\u0000\u0000\u0000\u0000\u0000\u0000\u0000\u0000\u0000\u0000\u0000\u0000\u0000\u0000\u0000\u0000\u0000\u0000\u0000\u0000\u0000\u0000\u0000\u0000\u0000\u0000\u0000\u0000\u0000\u0000\u0000\u0000\u0000\u0000\u0000\u0000\u0000\u0000\u0000\u0000",
        "\u0000\u0000\u0000\u0000\u0000\u0000\u0000\u0000\u0000\u0000\u0000\u0000\u0000\u0000\u0000\u0000\u0000\u0000\u0000\u0000\u0000\u0000\u0000\u0000\u0000\u0000\u0000\u0000\u0000\u0000\u0000\u0000\u0000\u0000\u0000\u0000\u0000\u0000\u0000\u0000\u0000\u0000\u0000\u0000\u0000\u0000\u0000\u0000\u0000\u0000",
        "\u0000\u0000\u0000\u0000\u0000\u0000\u0000\u0000\u0000\u0000\u0000\u0000\u0000\u0000\u0000\u0000\u0000\u0000\u0000\u0000\u0000\u0000\u0000\u0000\u0000\u0000\u0000\u0000\u0000\u0000\u0000\u0000\u0000\u0000\u0000\u0000\u0000\u0000\u0000\u0000\u0000\u0000\u0000\u0000\u0000\u0000\u0000\u0000\u0000\u0000",
        "\u0000\u0000\u0000\u0000\u0000\u0000\u0000\u0000\u0000\u0000\u0000\u0000\u0000\u0000\u0000\u0000\u0000\u0000\u0000\u0000\u0000\u0000\u0000\u0000\u0000\u0000\u0000\u0000\u0000\u0000\u0000\u0000\u0000\u0000\u0000\u0000\u0000\u0000\u0000\u0000\u0000\u0000\u0000\u0000\u0000\u0000\u0000\u0000\u0000\u0000",
        "\u0000\u0000\u0000\u0000\u0000\u0000\u0000\u0000\u0000\u0000\u0000\u0000\u0000\u0000\u0000\u0000\u0000\u0000\u0000\u0000\u0000\u0000\u0000\u0000\u0000\u0000\u0000\u0000\u0000\u0000\u0000\u0000\u0000\u0000\u0000\u0000\u0000\u0000\u0000\u0000\u0000\u0000\u0000\u0000\u0000\u0000\u0000\u0000\u0000\u0000",
