{
  "AcquisitionMatrixPE": 70,
  "AcquisitionNumber": 1,
  "AcquisitionTime": "13:43:59.250000",
  "BandwidthPerPixelPhaseEncode": 51.948,
  "BaseResolution": 70,
  "BodyPartExamined": "HEAD",
  "CoilCombinationMethod": "Sum of Squares",
  "ConsistencyInfo": "N4_VE11C_LATEST_20160120",
  "ConversionSoftware": "dcm2niix",
  "ConversionSoftwareVersion": "v1.0.20220720",
  "DerivedVendorReportedEchoSpacing": 0.000550001,
  "DeviceSerialNumber": "66061",
  "DwellTime": 3.3e-06,
  "EchoTime": 0.022,
  "EchoTrainLength": 35,
  "EffectiveEchoSpacing": 0.000275,
  "FlipAngle": 90,
  "HeudiconvVersion": "1.1.1",
  "ImageOrientationPatientDICOM": [0.999905, 0.00328385, 0.0133811, -0.00122167, 0.988488, -0.151295],
  "ImageOrientationText": "Tra>Cor(-8.7)>Sag(0.8)",
  "ImageType": [
    "ORIGINAL",
    "PRIMARY",
    "M",
    "ND",
    "NORM",
    "MOSAIC"
],
  "ImagingFrequency": 123.254,
  "InPlanePhaseEncodingDirectionDICOM": "COL",
  "InstitutionAddress": "Street StreetNo,City/1c4204/,District,KR,ZIP",
  "InstitutionName": "SKKU",
  "InstitutionalDepartmentName": "Department",
  "MRAcquisitionType": "2D",
  "MagneticFieldStrength": 3,
  "Manufacturer": "Siemens",
  "ManufacturersModelName": "Prisma",
  "MatrixCoilMode": "GRAPPA",
  "Modality": "MR",
  "NonlinearGradientCorrection": false,
  "ParallelReductionFactorInPlane": 2,
  "PartialFourier": 1,
  "PatientPosition": "HFS",
  "PercentPhaseFOV": 100,
  "PercentSampling": 100,
  "PhaseEncodingDirection": "j-",
  "PhaseEncodingSteps": 70,
  "PhaseResolution": 1,
  "PixelBandwidth": 2165,
  "ProcedureStepDescription": "Head^PI:Others",
  "ProtocolName": "BOLD_ep2d_3x3x3_dimension2",
  "PulseSequenceDetails": "%SiemensSeq%\\ep2d_pace",
  "ReceiveCoilActiveElements": "HC1-7",
  "ReceiveCoilName": "HeadNeck_64",
  "ReconMatrixPE": 70,
  "RefLinesPE": 24,
  "RepetitionTime": 2,
  "SAR": 0.147594,
  "ScanOptions": "FS",
  "ScanningSequence": "EP",
  "SequenceName": "*epfid2d1_70",
  "SequenceVariant": "SK",
  "SeriesDescription": "BOLD_ep2d_3x3x3_dimension2",
  "SeriesNumber": 8,
  "ShimSetting": [5048, 3667, 4435, 356, 9, -224, 223, 35],
  "SliceThickness": 3,
  "SliceTiming": [0.99, 0, 1.0375, 0.0475, 1.085, 0.095, 1.13, 0.14, 1.1775, 0.1875, 1.225, 0.235, 1.2725, 0.2825, 1.32, 0.33, 1.3675, 0.3775, 1.415, 0.425, 1.46, 0.47, 1.5075, 0.5175, 1.555, 0.565, 1.6025, 0.6125, 1.65, 0.66, 1.6975, 0.7075, 1.745, 0.755, 1.79, 0.8, 1.8375, 0.8475, 1.885, 0.895, 1.9325, 0.9425],
  "SoftwareVersions": "syngo MR E11",
  "SpacingBetweenSlices": 3,
  "StationName": "AWP66061",
  "TaskName": "dimension",
  "TotalReadoutTime": 0.018975,
  "TxRefAmp": 233.919,
  "dcmmeta_affine": [
    [-2.9997153282165527, -0.003665004391223192, 0.04117177426815033, 109.16451263427734],
    [-0.009851555339992046, 2.965463876724243, -0.453792005777359, -86.35477447509766],
    [0.040143419057130814, 0.4538841247558594, 2.9651944637298584, -60.673423767089844],
    [0.0, 0.0, 0.0, 1.0]
],
  "dcmmeta_reorient_transform": [
    [0.0, -1.0, 0.0, 69.0],
    [1.0, 0.0, 0.0, 0.0],
    [0.0, 0.0, -1.0, 41.0],
    [0.0, 0.0, 0.0, 1.0]
],
  "dcmmeta_shape": [70, 70, 42, 437],
  "dcmmeta_slice_dim": 2,
  "dcmmeta_version": 0.6,
  "global": {
    "const": {
      "AcquisitionMatrix": [70, 0, 0, 70],
      "AngioFlag": "N",
      "BitsAllocated": 16,
      "BitsStored": 12,
      "BodyPartExamined": "HEAD",
      "Columns": 490,
      "EchoNumbers": 1,
      "EchoTime": 22.0,
      "EchoTrainLength": 35,
      "FlipAngle": 90.0,
      "HighBit": 11,
      "ImageOrientationPatient": [0.99990507620401, 0.00328385165998, 0.01338113970185, -0.0012216681079, 0.9884879455662, -0.1512947090858],
      "ImagePositionPatient": [-739.77021855921, -724.47299239679, 179.10309916858],
      "ImageType": [
        "ORIGINAL",
        "PRIMARY",
        "M",
        "ND",
        "NORM",
        "MOSAIC"
],
      "ImagedNucleus": "1H",
      "ImagingFrequency": 123.254487,
      "InPlanePhaseEncodingDirection": "COL",
      "MRAcquisitionType": "2D",
      "MagneticFieldStrength": 3.0,
      "Manufacturer": "SIEMENS",
      "ManufacturerModelName": "Prisma",
      "Modality": "MR",
      "NumberOfAverages": 1.0,
      "NumberOfPhaseEncodingSteps": 70,
      "PercentPhaseFieldOfView": 100.0,
      "PercentSampling": 100.0,
      "PerformedProcedureStepStartTime": "125420.810000",
      "PhotometricInterpretation": "MONOCHROME2",
      "PixelBandwidth": 2165.0,
      "PixelRepresentation": 0,
      "PixelSpacing": [3.0, 3.0],
      "ProtocolName": "BOLD_ep2d_3x3x3_dimension2",
      "RepetitionTime": 2000.0,
      "Rows": 490,
      "SAR": 0.14759420940215,
      "SamplesPerPixel": 1,
      "ScanOptions": "FS",
      "ScanningSequence": "EP",
      "SequenceName": "*epfid2d1_70",
      "SequenceVariant": "SK",
      "SeriesDescription": "BOLD_ep2d_3x3x3_dimension2",
      "SeriesNumber": 8,
      "SeriesTime": "134440.649000",
      "SliceLocation": 77.591035447945,
      "SliceThickness": 3.0,
      "SmallestImagePixelValue": 0,
      "SoftwareVersions": "syngo MR E11",
      "SpacingBetweenSlices": 3.0000000418028,
      "SpecificCharacterSet": "ISO_IR 100",
      "StudyID": "1",
      "StudyTime": "125420.729000",
      "TransmitCoilName": "Body",
      "VariableFlipAngleFlag": "N",
      "WindowCenterWidthExplanation": "Algo1",
      "dBdt": 0.0},
    "slices": {}
  },
  "time": {
    "samples": {
      "AcquisitionNumber": [1, 2, 3, 4, 5, 6, 7, 8, 9, 10, 11, 12, 13, 14, 15, 16, 17, 18, 19, 20, 21, 22, 23, 24, 25, 26, 27, 28, 29, 30, 31, 32, 33, 34, 35, 36, 37, 38, 39, 40, 41, 42, 43, 44, 45, 46, 47, 48, 49, 50, 51, 52, 53, 54, 55, 56, 57, 58, 59, 60, 61, 62, 63, 64, 65, 66, 67, 68, 69, 70, 71, 72, 73, 74, 75, 76, 77, 78, 79, 80, 81, 82, 83, 84, 85, 86, 87, 88, 89, 90, 91, 92, 93, 94, 95, 96, 97, 98, 99, 100, 101, 102, 103, 104, 105, 106, 107, 108, 109, 110, 111, 112, 113, 114, 115, 116, 117, 118, 119, 120, 121, 122, 123, 124, 125, 126, 127, 128, 129, 130, 131, 132, 133, 134, 135, 136, 137, 138, 139, 140, 141, 142, 143, 144, 145, 146, 147, 148, 149, 150, 151, 152, 153, 154, 155, 156, 157, 158, 159, 160, 161, 162, 163, 164, 165, 166, 167, 168, 169, 170, 171, 172, 173, 174, 175, 176, 177, 178, 179, 180, 181, 182, 183, 184, 185, 186, 187, 188, 189, 190, 191, 192, 193, 194, 195, 196, 197, 198, 199, 200, 201, 202, 203, 204, 205, 206, 207, 208, 209, 210, 211, 212, 213, 214, 215, 216, 217, 218, 219, 220, 221, 222, 223, 224, 225, 226, 227, 228, 229, 230, 231, 232, 233, 234, 235, 236, 237, 238, 239, 240, 241, 242, 243, 244, 245, 246, 247, 248, 249, 250, 251, 252, 253, 254, 255, 256, 257, 258, 259, 260, 261, 262, 263, 264, 265, 266, 267, 268, 269, 270, 271, 272, 273, 274, 275, 276, 277, 278, 279, 280, 281, 282, 283, 284, 285, 286, 287, 288, 289, 290, 291, 292, 293, 294, 295, 296, 297, 298, 299, 300, 301, 302, 303, 304, 305, 306, 307, 308, 309, 310, 311, 312, 313, 314, 315, 316, 317, 318, 319, 320, 321, 322, 323, 324, 325, 326, 327, 328, 329, 330, 331, 332, 333, 334, 335, 336, 337, 338, 339, 340, 341, 342, 343, 344, 345, 346, 347, 348, 349, 350, 351, 352, 353, 354, 355, 356, 357, 358, 359, 360, 361, 362, 363, 364, 365, 366, 367, 368, 369, 370, 371, 372, 373, 374, 375, 376, 377, 378, 379, 380, 381, 382, 383, 384, 385, 386, 387, 388, 389, 390, 391, 392, 393, 394, 395, 396, 397, 398, 399, 400, 401, 402, 403, 404, 405, 406, 407, 408, 409, 410, 411, 412, 413, 414, 415, 416, 417, 418, 419, 420, 421, 422, 423, 424, 425, 426, 427, 428, 429, 430, 431, 432, 433, 434, 435, 436, 437],
      "AcquisitionTime": ["134359.250000", "134401.250000", "134403.250000", "134405.250000", "134407.250000", "134409.250000", "134411.250000", "134413.250000", "134415.250000", "134417.250000", "134419.250000", "134421.250000", "134423.250000", "134425.250000", "134427.250000", "134429.250000", "134431.250000", "134433.250000", "134435.250000", "134437.250000", "134439.250000", "134441.250000", "134443.250000", "134445.250000", "134447.250000", "134449.250000", "134451.250000", "134453.250000", "134455.250000", "134457.250000", "134459.250000", "134501.250000", "134503.250000", "134505.250000", "134507.250000", "134509.250000", "134511.250000", "134513.250000", "134515.250000", "134517.250000", "134519.250000", "134521.250000", "134523.250000", "134525.250000", "134527.250000", "134529.250000", "134531.250000", "134533.250000", "134535.250000", "134537.250000", "134539.250000", "134541.250000", "134543.250000", "134545.250000", "134547.250000", "134549.250000", "134551.250000", "134553.250000", "134555.250000", "134557.250000", "134559.250000", "134601.250000", "134603.250000", "134605.250000", "134607.250000", "134609.250000", "134611.250000", "134613.250000", "134615.250000", "134617.250000", "134619.250000", "134621.250000", "134623.250000", "134625.250000", "134627.250000", "134629.250000", "134631.250000", "134633.250000", "134635.250000", "134637.250000", "134639.250000", "134641.250000", "134643.250000", "134645.250000", "134647.250000", "134649.250000", "134651.250000", "134653.250000", "134655.250000", "134657.250000", "134659.250000", "134701.250000", "134703.250000", "134705.250000", "134707.250000", "134709.250000", "134711.250000", "134713.250000", "134715.250000", "134717.250000", "134719.250000", "134721.250000", "134723.250000", "134725.250000", "134727.250000", "134729.250000", "134731.250000", "134733.250000", "134735.250000", "134737.250000", "134739.250000", "134741.250000", "134743.250000", "134745.250000", "134747.250000", "134749.250000", "134751.250000", "134753.250000", "134755.250000", "134757.250000", "134759.250000", "134801.250000", "134803.250000", "134805.250000", "134807.250000", "134809.250000", "134811.250000", "134813.250000", "134815.250000", "134817.250000", "134819.250000", "134821.250000", "134823.250000", "134825.250000", "134827.250000", "134829.250000", "134831.250000", "134833.250000", "134835.250000", "134837.250000", "134839.250000", "134841.250000", "134843.250000", "134845.250000", "134847.250000", "134849.250000", "134851.250000", "134853.250000", "134855.250000", "134857.250000", "134859.250000", "134901.250000", "134903.250000", "134905.250000", "134907.250000", "134909.250000", "134911.250000", "134913.250000", "134915.250000", "134917.250000", "134919.250000", "134921.250000", "134923.250000", "134925.250000", "134927.250000", "134929.250000", "134931.250000", "134933.250000", "134935.250000", "134937.250000", "134939.250000", "134941.250000", "134943.250000", "134945.250000", "134947.250000", "134949.250000", "134951.250000", "134953.250000", "134955.250000", "134957.250000", "134959.250000", "135001.250000", "135003.250000", "135005.250000", "135007.250000", "135009.250000", "135011.250000", "135013.250000", "135015.250000", "135017.250000", "135019.250000", "135021.250000", "135023.250000", "135025.250000", "135027.250000", "135029.250000", "135031.250000", "135033.250000", "135035.250000", "135037.250000", "135039.250000", "135041.250000", "135043.250000", "135045.250000", "135047.250000", "135049.250000", "135051.250000", "135053.250000", "135055.250000", "135057.250000", "135059.250000", "135101.250000", "135103.250000", "135105.250000", "135107.250000", "135109.250000", "135111.250000", "135113.250000", "135115.250000", "135117.250000", "135119.250000", "135121.250000", "135123.250000", "135125.250000", "135127.250000", "135129.250000", "135131.250000", "135133.250000", "135135.250000", "135137.250000", "135139.250000", "135141.250000", "135143.250000", "135145.250000", "135147.250000", "135149.250000", "135151.250000", "135153.250000", "135155.250000", "135157.250000", "135159.250000", "135201.250000", "135203.250000", "135205.250000", "135207.250000", "135209.250000", "135211.250000", "135213.250000", "135215.250000", "135217.250000", "135219.250000", "135221.250000", "135223.250000", "135225.250000", "135227.250000", "135229.250000", "135231.250000", "135233.250000", "135235.250000", "135237.250000", "135239.250000", "135241.250000", "135243.250000", "135245.250000", "135247.250000", "135249.250000", "135251.250000", "135253.250000", "135255.250000", "135257.250000", "135259.250000", "135301.250000", "135303.250000", "135305.250000", "135307.250000", "135309.250000", "135311.250000", "135313.250000", "135315.250000", "135317.250000", "135319.250000", "135321.250000", "135323.250000", "135325.250000", "135327.250000", "135329.250000", "135331.250000", "135333.250000", "135335.250000", "135337.250000", "135339.250000", "135341.250000", "135343.250000", "135345.250000", "135347.250000", "135349.250000", "135351.250000", "135353.250000", "135355.250000", "135357.250000", "135359.250000", "135401.250000", "135403.250000", "135405.250000", "135407.250000", "135409.250000", "135411.250000", "135413.250000", "135415.250000", "135417.250000", "135419.250000", "135421.250000", "135423.250000", "135425.250000", "135427.250000", "135429.250000", "135431.250000", "135433.250000", "135435.250000", "135437.250000", "135439.250000", "135441.250000", "135443.250000", "135445.250000", "135447.250000", "135449.250000", "135451.250000", "135453.250000", "135455.250000", "135457.250000", "135459.250000", "135501.250000", "135503.250000", "135505.250000", "135507.250000", "135509.250000", "135511.250000", "135513.250000", "135515.250000", "135517.250000", "135519.250000", "135521.250000", "135523.250000", "135525.250000", "135527.250000", "135529.250000", "135531.250000", "135533.250000", "135535.250000", "135537.250000", "135539.250000", "135541.250000", "135543.250000", "135545.250000", "135547.250000", "135549.250000", "135551.250000", "135553.250000", "135555.250000", "135557.250000", "135559.250000", "135601.250000", "135603.250000", "135605.250000", "135607.250000", "135609.250000", "135611.250000", "135613.250000", "135615.250000", "135617.250000", "135619.250000", "135621.250000", "135623.250000", "135625.250000", "135627.250000", "135629.250000", "135631.250000", "135633.250000", "135635.250000", "135637.250000", "135639.250000", "135641.250000", "135643.250000", "135645.250000", "135647.250000", "135649.250000", "135651.250000", "135653.250000", "135655.250000", "135657.250000", "135659.250000", "135701.250000", "135703.250000", "135705.250000", "135707.250000", "135709.250000", "135711.250000", "135713.250000", "135715.250000", "135717.250000", "135719.250000", "135721.250000", "135723.250000", "135725.250000", "135727.250000", "135729.250000", "135731.250000", "135733.250000", "135735.250000", "135737.250000", "135739.250000", "135741.250000", "135743.250000", "135745.250000", "135747.250000", "135749.250000", "135751.250000", "135753.250000", "135755.250000", "135757.250000", "135759.250000", "135801.250000", "135803.250000", "135805.250000", "135807.250000", "135809.250000", "135811.250000", "135813.250000", "135815.250000", "135817.250000", "135819.250000", "135821.250000", "135823.250000", "135825.250000", "135827.250000", "135829.250000", "135831.250000"],
      "ContentTime": ["134440.652000", "134440.656000", "134440.658000", "134440.672000", "134440.682000", "134440.685000", "134440.687000", "134440.690000", "134440.693000", "134440.695000", "134440.698000", "134440.701000", "134440.703000", "134440.706000", "134440.709000", "134440.711000", "134440.714000", "134440.726000", "134440.728000", "134440.731000", "134520.649000", "134520.651000", "134520.654000", "134520.657000", "134520.660000", "134520.662000", "134520.665000", "134520.674000", "134520.676000", "134520.679000", "134520.682000", "134520.684000", "134520.687000", "134520.690000", "134520.693000", "134520.695000", "134520.698000", "134520.700000", "134520.703000", "134520.706000", "134600.648000", "134600.650000", "134600.653000", "134600.656000", "134600.659000", "134600.661000", "134600.664000", "134600.667000", "134600.669000", "134600.672000", "134600.681000", "134600.684000", "134600.687000", "134600.689000", "134600.692000", "134600.695000", "134600.698000", "134600.700000", "134600.703000", "134600.706000", "134640.648000", "134640.651000", "134640.653000", "134640.656000", "134640.659000", "134640.661000", "134640.664000", "134640.667000", "134640.670000", "134640.672000", "134640.675000", "134640.678000", "134640.680000", "134640.683000", "134640.686000", "134640.688000", "134640.691000", "134640.694000", "134640.697000", "134640.699000", "134720.648000", "134720.650000", "134720.653000", "134720.656000", "134720.659000", "134720.661000", "134720.664000", "134720.667000", "134720.670000", "134720.672000", "134720.675000", "134720.678000", "134720.680000", "134720.683000", "134720.686000", "134720.688000", "134720.691000", "134720.694000", "134720.696000", "134720.699000", "134740.649000", "134740.652000", "134740.655000", "134740.657000", "134740.660000", "134740.662000", "134740.665000", "134740.674000", "134740.676000", "134740.679000", "134820.648000", "134820.650000", "134820.653000", "134820.656000", "134820.659000", "134820.661000", "134820.664000", "134820.667000", "134820.669000", "134820.672000", "134820.675000", "134820.677000", "134820.680000", "134820.683000", "134820.685000", "134820.688000", "134820.691000", "134820.694000", "134820.696000", "134820.699000", "134900.648000", "134900.651000", "134900.653000", "134900.656000", "134900.659000", "134900.661000", "134900.664000", "134900.667000", "134900.670000", "134900.672000", "134900.675000", "134900.678000", "134900.680000", "134900.683000", "134900.686000", "134900.688000", "134900.691000", "134900.694000", "134900.696000", "134900.699000", "134940.648000", "134940.651000", "134940.653000", "134940.656000", "134940.659000", "134940.661000", "134940.664000", "134940.667000", "134940.670000", "134940.672000", "134940.675000", "134940.677000", "134940.680000", "134940.683000", "134940.686000", "134940.688000", "134940.691000", "134940.694000", "134940.696000", "134940.699000", "135020.649000", "135020.652000", "135020.654000", "135020.657000", "135020.660000", "135020.662000", "135020.665000", "135020.668000", "135020.671000", "135020.673000", "135020.676000", "135020.678000", "135020.681000", "135020.684000", "135020.687000", "135020.689000", "135020.692000", "135020.695000", "135020.698000", "135020.700000", "135100.648000", "135100.651000", "135100.653000", "135100.656000", "135100.659000", "135100.661000", "135100.664000", "135100.667000", "135100.670000", "135100.672000", "135100.675000", "135100.677000", "135100.680000", "135100.683000", "135100.686000", "135100.688000", "135100.691000", "135100.694000", "135100.696000", "135100.699000", "135140.648000", "135140.650000", "135140.653000", "135140.656000", "135140.659000", "135140.661000", "135140.664000", "135140.667000", "135140.669000", "135140.672000", "135140.675000", "135140.677000", "135140.680000", "135140.683000", "135140.686000", "135140.688000", "135140.691000", "135140.694000", "135140.696000", "135140.699000", "135220.649000", "135220.651000", "135220.654000", "135220.657000", "135220.660000", "135220.662000", "135220.665000", "135220.668000", "135220.671000", "135220.673000", "135220.676000", "135220.679000", "135220.681000", "135220.684000", "135220.687000", "135220.689000", "135220.692000", "135220.695000", "135220.697000", "135220.700000", "135300.648000", "135300.651000", "135300.653000", "135300.656000", "135300.659000", "135300.662000", "135300.664000", "135300.667000", "135300.670000", "135300.672000", "135300.675000", "135300.678000", "135300.681000", "135300.683000", "135300.686000", "135300.689000", "135300.691000", "135300.694000", "135300.697000", "135300.699000", "135340.648000", "135340.651000", "135340.661000", "135340.663000", "135340.666000", "135340.669000", "135340.672000", "135340.674000", "135340.677000", "135340.680000", "135340.682000", "135340.685000", "135340.688000", "135340.690000", "135340.693000", "135340.696000", "135340.699000", "135340.701000", "135340.704000", "135340.707000", "135420.648000", "135420.651000", "135420.653000", "135420.656000", "135420.659000", "135420.661000", "135420.664000", "135420.667000", "135420.669000", "135420.672000", "135420.675000", "135420.677000", "135420.680000", "135420.683000", "135420.686000", "135420.688000", "135420.691000", "135420.694000", "135420.696000", "135420.699000", "135500.649000", "135500.652000", "135500.654000", "135500.657000", "135500.660000", "135500.663000", "135500.665000", "135500.668000", "135500.671000", "135500.673000", "135500.676000", "135500.679000", "135500.681000", "135500.684000", "135500.687000", "135500.689000", "135500.692000", "135500.695000", "135500.698000", "135500.700000", "135540.648000", "135540.651000", "135540.653000", "135540.656000", "135540.659000", "135540.662000", "135540.664000", "135540.667000", "135540.670000", "135540.672000", "135540.675000", "135540.678000", "135540.681000", "135540.683000", "135540.686000", "135540.689000", "135540.691000", "135540.694000", "135540.697000", "135540.699000", "135620.648000", "135620.651000", "135620.653000", "135620.656000", "135620.659000", "135620.662000", "135620.664000", "135620.667000", "135620.670000", "135620.672000", "135620.675000", "135620.678000", "135620.680000", "135620.683000", "135620.686000", "135620.688000", "135620.691000", "135620.694000", "135620.697000", "135620.699000", "135700.649000", "135700.652000", "135700.654000", "135700.657000", "135700.660000", "135700.663000", "135700.665000", "135700.668000", "135700.671000", "135700.673000", "135700.676000", "135700.679000", "135700.682000", "135700.684000", "135700.687000", "135700.689000", "135700.692000", "135700.695000", "135700.698000", "135700.700000", "135740.648000", "135740.651000", "135740.653000", "135740.656000", "135740.659000", "135740.662000", "135740.664000", "135740.667000", "135740.670000", "135740.672000", "135740.675000", "135740.678000", "135740.681000", "135740.683000", "135740.686000", "135740.689000", "135740.691000", "135740.694000", "135740.697000", "135740.699000", "135820.648000", "135820.651000", "135820.653000", "135820.656000", "135820.659000", "135820.662000", "135820.664000", "135820.667000", "135820.679000", "135820.682000", "135820.685000", "135820.687000", "135820.690000", "135820.693000", "135820.695000", "135820.698000", "135820.701000", "135820.704000", "135820.706000", "135820.709000", "135833.057000", "135833.061000", "135833.064000", "135833.066000", "135833.069000", "135833.072000", "135833.075000"],
      "DataSetTrailingPadding": [
        "\u0000\u0000\u0000\u0000\u0000\u0000\u0000\u0000\u0000\u0000\u0000\u0000\u0000\u0000\u0000\u0000\u0000\u0000\u0000\u0000\u0000\u0000\u0000\u0000\u0000\u0000\u0000\u0000\u0000\u0000\u0000\u0000\u0000\u0000\u0000\u0000\u0000\u0000\u0000\u0000\u0000\u0000\u0000\u0000\u0000\u0000\u0000\u0000\u0000\u0000\u0000\u0000\u0000\u0000\u0000\u0000\u0000\u0000\u0000\u0000\u0000\u0000\u0000\u0000\u0000\u0000\u0000\u0000\u0000\u0000\u0000\u0000\u0000\u0000\u0000\u0000\u0000\u0000\u0000\u0000\u0000\u0000\u0000\u0000\u0000\u0000\u0000\u0000\u0000\u0000\u0000\u0000\u0000\u0000\u0000\u0000\u0000\u0000\u0000\u0000\u0000\u0000\u0000\u0000\u0000\u0000\u0000\u0000\u0000\u0000\u0000\u0000\u0000\u0000\u0000\u0000\u0000\u0000\u0000\u0000\u0000\u0000\u0000\u0000\u0000\u0000\u0000\u0000\u0000\u0000\u0000\u0000\u0000\u0000\u0000\u0000\u0000\u0000\u0000\u0000\u0000\u0000\u0000\u0000\u0000\u0000\u0000\u0000\u0000\u0000\u0000\u0000\u0000\u0000\u0000\u0000\u0000\u0000\u0000\u0000\u0000\u0000\u0000\u0000\u0000\u0000\u0000\u0000\u0000\u0000\u0000\u0000\u0000\u0000\u0000\u0000\u0000\u0000\u0000\u0000\u0000\u0000\u0000\u0000\u0000\u0000\u0000\u0000\u0000\u0000\u0000\u0000\u0000\u0000\u0000\u0000\u0000\u0000\u0000\u0000\u0000\u0000\u0000\u0000\u0000\u0000\u0000\u0000\u0000\u0000\u0000\u0000\u0000\u0000\u0000\u0000\u0000\u0000\u0000\u0000\u0000\u0000\u0000\u0000\u0000\u0000\u0000\u0000\u0000\u0000\u0000\u0000\u0000\u0000\u0000\u0000\u0000\u0000\u0000\u0000\u0000\u0000\u0000\u0000\u0000\u0000\u0000\u0000\u0000\u0000\u0000\u0000\u0000\u0000\u0000\u0000\u0000\u0000\u0000\u0000\u0000\u0000\u0000\u0000\u0000\u0000\u0000\u0000\u0000\u0000\u0000\u0000\u0000\u0000\u0000\u0000\u0000\u0000\u0000\u0000\u0000\u0000\u0000\u0000\u0000\u0000\u0000\u0000\u0000\u0000\u0000\u0000\u0000\u0000\u0000\u0000\u0000\u0000\u0000\u0000\u0000\u0000\u0000\u0000\u0000\u0000",
        "\u0000\u0000\u0000\u0000\u0000\u0000\u0000\u0000\u0000\u0000\u0000\u0000\u0000\u0000\u0000\u0000\u0000\u0000\u0000\u0000\u0000\u0000\u0000\u0000\u0000\u0000\u0000\u0000\u0000\u0000\u0000\u0000\u0000\u0000\u0000\u0000\u0000\u0000\u0000\u0000\u0000\u0000\u0000\u0000\u0000\u0000\u0000\u0000\u0000\u0000\u0000\u0000\u0000\u0000\u0000\u0000\u0000\u0000\u0000\u0000\u0000\u0000\u0000\u0000\u0000\u0000\u0000\u0000\u0000\u0000\u0000\u0000\u0000\u0000\u0000\u0000\u0000\u0000\u0000\u0000\u0000\u0000\u0000\u0000\u0000\u0000\u0000\u0000\u0000\u0000\u0000\u0000\u0000\u0000\u0000\u0000\u0000\u0000\u0000\u0000\u0000\u0000\u0000\u0000\u0000\u0000\u0000\u0000\u0000\u0000\u0000\u0000\u0000\u0000\u0000\u0000\u0000\u0000\u0000\u0000\u0000\u0000\u0000\u0000\u0000\u0000\u0000\u0000\u0000\u0000\u0000\u0000\u0000\u0000\u0000\u0000\u0000\u0000\u0000\u0000\u0000\u0000\u0000\u0000\u0000\u0000\u0000\u0000\u0000\u0000\u0000\u0000\u0000\u0000\u0000\u0000\u0000\u0000\u0000\u0000\u0000\u0000\u0000\u0000\u0000\u0000\u0000\u0000\u0000\u0000\u0000\u0000\u0000\u0000\u0000\u0000\u0000\u0000\u0000\u0000\u0000\u0000\u0000\u0000\u0000\u0000\u0000\u0000\u0000\u0000\u0000\u0000\u0000\u0000\u0000\u0000\u0000\u0000\u0000\u0000\u0000\u0000\u0000\u0000\u0000\u0000\u0000\u0000\u0000\u0000\u0000\u0000\u0000\u0000\u0000\u0000\u0000\u0000\u0000\u0000\u0000\u0000\u0000\u0000\u0000\u0000\u0000\u0000\u0000\u0000\u0000\u0000\u0000\u0000\u0000\u0000\u0000\u0000\u0000\u0000\u0000\u0000\u0000\u0000\u0000\u0000\u0000\u0000\u0000\u0000\u0000\u0000\u0000\u0000\u0000\u0000\u0000\u0000\u0000\u0000\u0000\u0000\u0000\u0000\u0000\u0000\u0000\u0000\u0000\u0000\u0000\u0000\u0000\u0000\u0000\u0000\u0000\u0000\u0000\u0000\u0000\u0000\u0000\u0000\u0000\u0000\u0000\u0000\u0000\u0000\u0000\u0000\u0000\u0000\u0000\u0000\u0000\u0000\u0000\u0000\u0000\u0000\u0000\u0000\u0000\u0000\u0000\u0000",
        "\u0000\u0000\u0000\u0000\u0000\u0000\u0000\u0000\u0000\u0000\u0000\u0000\u0000\u0000\u0000\u0000\u0000\u0000\u0000\u0000\u0000\u0000\u0000\u0000\u0000\u0000\u0000\u0000\u0000\u0000\u0000\u0000\u0000\u0000\u0000\u0000\u0000\u0000\u0000\u0000\u0000\u0000\u0000\u0000\u0000\u0000\u0000\u0000\u0000\u0000\u0000\u0000\u0000\u0000\u0000\u0000\u0000\u0000\u0000\u0000\u0000\u0000\u0000\u0000\u0000\u0000\u0000\u0000\u0000\u0000\u0000\u0000\u0000\u0000\u0000\u0000\u0000\u0000\u0000\u0000\u0000\u0000\u0000\u0000\u0000\u0000\u0000\u0000\u0000\u0000\u0000\u0000\u0000\u0000\u0000\u0000\u0000\u0000\u0000\u0000\u0000\u0000\u0000\u0000\u0000\u0000\u0000\u0000\u0000\u0000\u0000\u0000\u0000\u0000\u0000\u0000\u0000\u0000\u0000\u0000\u0000\u0000\u0000\u0000\u0000\u0000\u0000\u0000\u0000\u0000\u0000\u0000\u0000\u0000\u0000\u0000\u0000\u0000\u0000\u0000\u0000\u0000\u0000\u0000\u0000\u0000\u0000\u0000\u0000\u0000\u0000\u0000\u0000\u0000\u0000\u0000\u0000\u0000\u0000\u0000\u0000\u0000\u0000\u0000\u0000\u0000\u0000\u0000\u0000\u0000\u0000\u0000\u0000\u0000\u0000\u0000\u0000\u0000\u0000\u0000\u0000\u0000\u0000\u0000\u0000\u0000\u0000\u0000\u0000\u0000\u0000\u0000\u0000\u0000\u0000\u0000\u0000\u0000\u0000\u0000\u0000\u0000\u0000\u0000\u0000\u0000\u0000\u0000\u0000\u0000\u0000\u0000\u0000\u0000\u0000\u0000\u0000\u0000\u0000\u0000\u0000\u0000\u0000\u0000\u0000\u0000\u0000\u0000\u0000\u0000\u0000\u0000\u0000\u0000\u0000\u0000\u0000\u0000\u0000\u0000\u0000\u0000\u0000\u0000\u0000\u0000\u0000\u0000\u0000\u0000\u0000\u0000\u0000\u0000\u0000\u0000\u0000\u0000\u0000\u0000\u0000\u0000\u0000\u0000\u0000\u0000\u0000\u0000\u0000\u0000\u0000\u0000\u0000\u0000\u0000\u0000\u0000\u0000\u0000\u0000\u0000\u0000\u0000\u0000\u0000\u0000\u0000\u0000\u0000\u0000\u0000\u0000\u0000\u0000\u0000\u0000\u0000\u0000\u0000\u0000\u0000\u0000\u0000\u0000\u0000\u0000\u0000\u0000",
        "\u0000\u0000\u0000\u0000\u0000\u0000\u0000\u0000\u0000\u0000\u0000\u0000\u0000\u0000\u0000\u0000\u0000\u0000\u0000\u0000\u0000\u0000\u0000\u0000\u0000\u0000\u0000\u0000\u0000\u0000\u0000\u0000\u0000\u0000\u0000\u0000\u0000\u0000\u0000\u0000\u0000\u0000\u0000\u0000\u0000\u0000\u0000\u0000\u0000\u0000\u0000\u0000\u0000\u0000\u0000\u0000\u0000\u0000\u0000\u0000\u0000\u0000\u0000\u0000\u0000\u0000\u0000\u0000\u0000\u0000\u0000\u0000\u0000\u0000\u0000\u0000\u0000\u0000\u0000\u0000\u0000\u0000\u0000\u0000\u0000\u0000\u0000\u0000\u0000\u0000\u0000\u0000\u0000\u0000\u0000\u0000\u0000\u0000\u0000\u0000\u0000\u0000\u0000\u0000\u0000\u0000\u0000\u0000\u0000\u0000\u0000\u0000\u0000\u0000\u0000\u0000\u0000\u0000\u0000\u0000\u0000\u0000\u0000\u0000\u0000\u0000\u0000\u0000\u0000\u0000\u0000\u0000\u0000\u0000\u0000\u0000\u0000\u0000\u0000\u0000\u0000\u0000\u0000\u0000\u0000\u0000\u0000\u0000\u0000\u0000\u0000\u0000\u0000\u0000\u0000\u0000\u0000\u0000\u0000\u0000\u0000\u0000\u0000\u0000\u0000\u0000\u0000\u0000\u0000\u0000\u0000\u0000\u0000\u0000\u0000\u0000\u0000\u0000\u0000\u0000\u0000\u0000\u0000\u0000\u0000\u0000\u0000\u0000\u0000\u0000\u0000\u0000\u0000\u0000\u0000\u0000\u0000\u0000\u0000\u0000\u0000\u0000\u0000\u0000\u0000\u0000\u0000\u0000\u0000\u0000\u0000\u0000\u0000\u0000\u0000\u0000\u0000\u0000\u0000\u0000\u0000\u0000\u0000\u0000\u0000\u0000\u0000\u0000\u0000\u0000\u0000\u0000\u0000\u0000\u0000\u0000\u0000\u0000\u0000\u0000\u0000\u0000\u0000\u0000\u0000\u0000\u0000\u0000\u0000\u0000\u0000\u0000\u0000\u0000\u0000\u0000\u0000\u0000\u0000\u0000\u0000\u0000\u0000\u0000\u0000\u0000\u0000\u0000\u0000\u0000\u0000\u0000\u0000\u0000\u0000\u0000\u0000\u0000\u0000\u0000\u0000\u0000\u0000\u0000\u0000\u0000\u0000\u0000\u0000\u0000\u0000\u0000\u0000\u0000\u0000\u0000\u0000\u0000\u0000\u0000\u0000\u0000\u0000\u0000\u0000\u0000\u0000\u0000",
