{
  "AcquisitionMatrixPE": 70,
  "AcquisitionNumber": 1,
  "AcquisitionTime": "13:02:53.515000",
  "BandwidthPerPixelPhaseEncode": 51.948,
  "BaseResolution": 70,
  "BodyPartExamined": "HEAD",
  "CoilCombinationMethod": "Sum of Squares",
  "ConsistencyInfo": "N4_VE11C_LATEST_20160120",
  "ConversionSoftware": "dcm2niix",
  "ConversionSoftwareVersion": "v1.0.20220720",
  "DerivedVendorReportedEchoSpacing": 0.000550001,
  "DeviceSerialNumber": "66061",
  "DwellTime": 3.3e-06,
  "EchoTime": 0.022,
  "EchoTrainLength": 35,
  "EffectiveEchoSpacing": 0.000275,
  "FlipAngle": 90,
  "HeudiconvVersion": "1.1.1",
  "ImageOrientationPatientDICOM": [0.999905, 0.00328385, 0.0133811, -0.00122167, 0.988488, -0.151295],
  "ImageOrientationText": "Tra>Cor(-8.7)>Sag(0.8)",
  "ImageType": [
    "ORIGINAL",
    "PRIMARY",
    "M",
    "ND",
    "NORM",
    "MOSAIC"
],
  "ImagingFrequency": 123.254,
  "InPlanePhaseEncodingDirectionDICOM": "COL",
  "InstitutionAddress": "Street StreetNo,City/1c4204/,District,KR,ZIP",
  "InstitutionName": "SKKU",
  "InstitutionalDepartmentName": "Department",
  "MRAcquisitionType": "2D",
  "MagneticFieldStrength": 3,
  "Manufacturer": "Siemens",
  "ManufacturersModelName": "Prisma",
  "MatrixCoilMode": "GRAPPA",
  "Modality": "MR",
  "NonlinearGradientCorrection": false,
  "ParallelReductionFactorInPlane": 2,
  "PartialFourier": 1,
  "PatientPosition": "HFS",
  "PercentPhaseFOV": 100,
  "PercentSampling": 100,
  "PhaseEncodingDirection": "j-",
  "PhaseEncodingSteps": 70,
  "PhaseResolution": 1,
  "PixelBandwidth": 2165,
  "ProcedureStepDescription": "Head^PI:Others",
  "ProtocolName": "BOLD_ep2d_3x3x3_response1",
  "PulseSequenceDetails": "%SiemensSeq%\\ep2d_pace",
  "ReceiveCoilActiveElements": "HC1-7",
  "ReceiveCoilName": "HeadNeck_64",
  "ReconMatrixPE": 70,
  "RefLinesPE": 24,
  "RepetitionTime": 2,
  "SAR": 0.147594,
  "ScanOptions": "FS",
  "ScanningSequence": "EP",
  "SequenceName": "*epfid2d1_70",
  "SequenceVariant": "SK",
  "SeriesDescription": "BOLD_ep2d_3x3x3_response1",
  "SeriesNumber": 5,
  "ShimSetting": [5048, 3667, 4435, 356, 9, -224, 223, 35],
  "SliceThickness": 3,
  "SliceTiming": [0.99, 0, 1.0375, 0.0475, 1.085, 0.095, 1.1325, 0.1425, 1.1775, 0.1875, 1.225, 0.235, 1.2725, 0.2825, 1.32, 0.33, 1.3675, 0.3775, 1.415, 0.425, 1.4625, 0.4725, 1.5075, 0.5175, 1.555, 0.565, 1.6025, 0.6125, 1.65, 0.66, 1.6975, 0.7075, 1.745, 0.755, 1.7925, 0.8025, 1.8375, 0.8475, 1.885, 0.895, 1.9325, 0.9425],
  "SoftwareVersions": "syngo MR E11",
  "SpacingBetweenSlices": 3,
  "StationName": "AWP66061",
  "TaskName": "response",
  "TotalReadoutTime": 0.018975,
  "TxRefAmp": 233.919,
  "dcmmeta_affine": [
    [-2.9997153282165527, -0.003665004391223192, 0.04117177426815033, 109.16451263427734],
    [-0.009851555339992046, 2.965463876724243, -0.453792005777359, -86.35477447509766],
    [0.040143419057130814, 0.4538841247558594, 2.9651944637298584, -60.673423767089844],
    [0.0, 0.0, 0.0, 1.0]
],
  "dcmmeta_reorient_transform": [
    [0.0, -1.0, 0.0, 69.0],
    [1.0, 0.0, 0.0, 0.0],
    [0.0, 0.0, -1.0, 41.0],
    [0.0, 0.0, 0.0, 1.0]
],
  "dcmmeta_shape": [70, 70, 42, 341],
  "dcmmeta_slice_dim": 2,
  "dcmmeta_version": 0.6,
  "global": {
    "const": {
      "AcquisitionMatrix": [70, 0, 0, 70],
      "AngioFlag": "N",
      "BitsAllocated": 16,
      "BitsStored": 12,
      "BodyPartExamined": "HEAD",
      "Columns": 490,
      "EchoNumbers": 1,
      "EchoTime": 22.0,
      "EchoTrainLength": 35,
      "FlipAngle": 90.0,
      "HighBit": 11,
      "ImageOrientationPatient": [0.99990507620401, 0.00328385165998, 0.01338113970185, -0.0012216681079, 0.9884879455662, -0.1512947090858],
      "ImagePositionPatient": [-739.77021855921, -724.47299239679, 179.10309916858],
      "ImageType": [
        "ORIGINAL",
        "PRIMARY",
        "M",
        "ND",
        "NORM",
        "MOSAIC"
],
      "ImagedNucleus": "1H",
      "ImagingFrequency": 123.254472,
      "InPlanePhaseEncodingDirection": "COL",
      "MRAcquisitionType": "2D",
      "MagneticFieldStrength": 3.0,
      "Manufacturer": "SIEMENS",
      "ManufacturerModelName": "Prisma",
      "Modality": "MR",
      "NumberOfAverages": 1.0,
      "NumberOfPhaseEncodingSteps": 70,
      "PercentPhaseFieldOfView": 100.0,
      "PercentSampling": 100.0,
      "PerformedProcedureStepStartTime": "125420.810000",
      "PhotometricInterpretation": "MONOCHROME2",
      "PixelBandwidth": 2165.0,
      "PixelRepresentation": 0,
      "PixelSpacing": [3.0, 3.0],
      "ProtocolName": "BOLD_ep2d_3x3x3_response1",
      "RepetitionTime": 2000.0,
      "Rows": 490,
      "SAR": 0.14759372389313,
      "SamplesPerPixel": 1,
      "ScanOptions": "FS",
      "ScanningSequence": "EP",
      "SequenceName": "*epfid2d1_70",
      "SequenceVariant": "SK",
      "SeriesDescription": "BOLD_ep2d_3x3x3_response1",
      "SeriesNumber": 5,
      "SeriesTime": "130340.650000",
      "SliceLocation": 77.591035447945,
      "SliceThickness": 3.0,
      "SmallestImagePixelValue": 0,
      "SoftwareVersions": "syngo MR E11",
      "SpacingBetweenSlices": 3.0000000418028,
      "SpecificCharacterSet": "ISO_IR 100",
      "StudyID": "1",
      "StudyTime": "125420.729000",
      "TransmitCoilName": "Body",
      "VariableFlipAngleFlag": "N",
      "WindowCenterWidthExplanation": "Algo1",
      "dBdt": 0.0},
    "slices": {}
  },
  "time": {
    "samples": {
      "AcquisitionNumber": [1, 2, 3, 4, 5, 6, 7, 8, 9, 10, 11, 12, 13, 14, 15, 16, 17, 18, 19, 20, 21, 22, 23, 24, 25, 26, 27, 28, 29, 30, 31, 32, 33, 34, 35, 36, 37, 38, 39, 40, 41, 42, 43, 44, 45, 46, 47, 48, 49, 50, 51, 52, 53, 54, 55, 56, 57, 58, 59, 60, 61, 62, 63, 64, 65, 66, 67, 68, 69, 70, 71, 72, 73, 74, 75, 76, 77, 78, 79, 80, 81, 82, 83, 84, 85, 86, 87, 88, 89, 90, 91, 92, 93, 94, 95, 96, 97, 98, 99, 100, 101, 102, 103, 104, 105, 106, 107, 108, 109, 110, 111, 112, 113, 114, 115, 116, 117, 118, 119, 120, 121, 122, 123, 124, 125, 126, 127, 128, 129, 130, 131, 132, 133, 134, 135, 136, 137, 138, 139, 140, 141, 142, 143, 144, 145, 146, 147, 148, 149, 150, 151, 152, 153, 154, 155, 156, 157, 158, 159, 160, 161, 162, 163, 164, 165, 166, 167, 168, 169, 170, 171, 172, 173, 174, 175, 176, 177, 178, 179, 180, 181, 182, 183, 184, 185, 186, 187, 188, 189, 190, 191, 192, 193, 194, 195, 196, 197, 198, 199, 200, 201, 202, 203, 204, 205, 206, 207, 208, 209, 210, 211, 212, 213, 214, 215, 216, 217, 218, 219, 220, 221, 222, 223, 224, 225, 226, 227, 228, 229, 230, 231, 232, 233, 234, 235, 236, 237, 238, 239, 240, 241, 242, 243, 244, 245, 246, 247, 248, 249, 250, 251, 252, 253, 254, 255, 256, 257, 258, 259, 260, 261, 262, 263, 264, 265, 266, 267, 268, 269, 270, 271, 272, 273, 274, 275, 276, 277, 278, 279, 280, 281, 282, 283, 284, 285, 286, 287, 288, 289, 290, 291, 292, 293, 294, 295, 296, 297, 298, 299, 300, 301, 302, 303, 304, 305, 306, 307, 308, 309, 310, 311, 312, 313, 314, 315, 316, 317, 318, 319, 320, 321, 322, 323, 324, 325, 326, 327, 328, 329, 330, 331, 332, 333, 334, 335, 336, 337, 338, 339, 340, 341],
      "AcquisitionTime": ["130253.515000", "130255.515000", "130257.515000", "130259.515000", "130301.515000", "130303.515000", "130305.515000", "130307.515000", "130309.515000", "130311.515000", "130313.515000", "130315.515000", "130317.515000", "130319.515000", "130321.515000", "130323.515000", "130325.515000", "130327.515000", "130329.515000", "130331.515000", "130333.515000", "130335.515000", "130337.515000", "130339.515000", "130341.515000", "130343.515000", "130345.515000", "130347.515000", "130349.515000", "130351.515000", "130353.515000", "130355.515000", "130357.515000", "130359.515000", "130401.515000", "130403.515000", "130405.515000", "130407.515000", "130409.515000", "130411.515000", "130413.515000", "130415.515000", "130417.515000", "130419.515000", "130421.515000", "130423.515000", "130425.515000", "130427.515000", "130429.515000", "130431.515000", "130433.515000", "130435.515000", "130437.515000", "130439.515000", "130441.515000", "130443.515000", "130445.515000", "130447.515000", "130449.515000", "130451.515000", "130453.515000", "130455.515000", "130457.515000", "130459.515000", "130501.515000", "130503.515000", "130505.515000", "130507.515000", "130509.515000", "130511.515000", "130513.515000", "130515.515000", "130517.515000", "130519.515000", "130521.515000", "130523.515000", "130525.515000", "130527.515000", "130529.515000", "130531.515000", "130533.515000", "130535.515000", "130537.515000", "130539.515000", "130541.515000", "130543.515000", "130545.515000", "130547.515000", "130549.515000", "130551.515000", "130553.515000", "130555.515000", "130557.515000", "130559.515000", "130601.515000", "130603.515000", "130605.515000", "130607.515000", "130609.515000", "130611.515000", "130613.515000", "130615.515000", "130617.515000", "130619.515000", "130621.515000", "130623.515000", "130625.515000", "130627.515000", "130629.515000", "130631.515000", "130633.515000", "130635.515000", "130637.515000", "130639.515000", "130641.515000", "130643.515000", "130645.515000", "130647.515000", "130649.515000", "130651.515000", "130653.515000", "130655.515000", "130657.515000", "130659.515000", "130701.515000", "130703.515000", "130705.515000", "130707.515000", "130709.515000", "130711.515000", "130713.515000", "130715.515000", "130717.515000", "130719.515000", "130721.515000", "130723.515000", "130725.515000", "130727.515000", "130729.515000", "130731.515000", "130733.515000", "130735.515000", "130737.515000", "130739.515000", "130741.515000", "130743.515000", "130745.515000", "130747.515000", "130749.515000", "130751.515000", "130753.515000", "130755.515000", "130757.515000", "130759.515000", "130801.515000", "130803.515000", "130805.515000", "130807.515000", "130809.515000", "130811.515000", "130813.515000", "130815.515000", "130817.515000", "130819.515000", "130821.515000", "130823.515000", "130825.515000", "130827.515000", "130829.515000", "130831.515000", "130833.515000", "130835.515000", "130837.515000", "130839.515000", "130841.515000", "130843.515000", "130845.515000", "130847.515000", "130849.515000", "130851.515000", "130853.515000", "130855.515000", "130857.515000", "130859.515000", "130901.515000", "130903.515000", "130905.515000", "130907.515000", "130909.515000", "130911.515000", "130913.515000", "130915.515000", "130917.515000", "130919.515000", "130921.515000", "130923.515000", "130925.515000", "130927.515000", "130929.515000", "130931.515000", "130933.515000", "130935.515000", "130937.515000", "130939.515000", "130941.515000", "130943.515000", "130945.515000", "130947.515000", "130949.515000", "130951.515000", "130953.515000", "130955.515000", "130957.515000", "130959.515000", "131001.515000", "131003.515000", "131005.515000", "131007.515000", "131009.515000", "131011.515000", "131013.515000", "131015.515000", "131017.515000", "131019.515000", "131021.515000", "131023.515000", "131025.515000", "131027.515000", "131029.515000", "131031.515000", "131033.515000", "131035.515000", "131037.515000", "131039.515000", "131041.515000", "131043.515000", "131045.515000", "131047.515000", "131049.515000", "131051.515000", "131053.515000", "131055.515000", "131057.515000", "131059.515000", "131101.515000", "131103.515000", "131105.515000", "131107.515000", "131109.515000", "131111.515000", "131113.515000", "131115.515000", "131117.515000", "131119.515000", "131121.515000", "131123.515000", "131125.515000", "131127.515000", "131129.515000", "131131.515000", "131133.515000", "131135.515000", "131137.515000", "131139.515000", "131141.515000", "131143.515000", "131145.515000", "131147.515000", "131149.515000", "131151.515000", "131153.515000", "131155.515000", "131157.515000", "131159.515000", "131201.515000", "131203.515000", "131205.515000", "131207.515000", "131209.515000", "131211.515000", "131213.515000", "131215.515000", "131217.515000", "131219.515000", "131221.515000", "131223.515000", "131225.515000", "131227.515000", "131229.515000", "131231.515000", "131233.515000", "131235.515000", "131237.515000", "131239.515000", "131241.515000", "131243.515000", "131245.515000", "131247.515000", "131249.515000", "131251.515000", "131253.515000", "131255.515000", "131257.515000", "131259.515000", "131301.515000", "131303.515000", "131305.515000", "131307.515000", "131309.515000", "131311.515000", "131313.515000", "131315.515000", "131317.515000", "131319.515000", "131321.515000", "131323.515000", "131325.515000", "131327.515000", "131329.515000", "131331.515000", "131333.515000", "131335.515000", "131337.515000", "131339.515000", "131341.515000", "131343.515000", "131345.515000", "131347.515000", "131349.515000", "131351.515000", "131353.515000", "131355.515000", "131357.515000", "131359.515000", "131401.515000", "131403.515000", "131405.515000", "131407.515000", "131409.515000", "131411.515000", "131413.515000"],
      "ContentTime": ["130340.653000", "130340.657000", "130340.661000", "130340.664000", "130340.666000", "130340.669000", "130340.672000", "130340.674000", "130340.677000", "130340.680000", "130340.689000", "130340.691000", "130340.694000", "130340.700000", "130340.705000", "130340.708000", "130340.711000", "130340.714000", "130340.716000", "130340.719000", "130340.722000", "130340.724000", "130340.727000", "130420.648000", "130420.651000", "130420.653000", "130420.656000", "130420.659000", "130420.661000", "130420.664000", "130420.667000", "130420.669000", "130420.672000", "130420.684000", "130420.687000", "130420.689000", "130420.692000", "130420.695000", "130420.697000", "130420.700000", "130420.703000", "130420.705000", "130420.708000", "130500.648000", "130500.651000", "130500.653000", "130500.656000", "130500.659000", "130500.661000", "130500.664000", "130500.666000", "130500.676000", "130500.679000", "130500.682000", "130500.684000", "130500.687000", "130500.698000", "130500.700000", "130500.703000", "130500.706000", "130500.709000", "130500.711000", "130500.714000", "130540.648000", "130540.650000", "130540.653000", "130540.656000", "130540.659000", "130540.661000", "130540.664000", "130540.667000", "130540.669000", "130540.672000", "130540.675000", "130540.677000", "130540.680000", "130540.683000", "130540.685000", "130540.688000", "130540.691000", "130540.693000", "130540.696000", "130540.699000", "130620.649000", "130620.652000", "130620.654000", "130620.657000", "130620.660000", "130620.663000", "130620.665000", "130620.668000", "130620.671000", "130620.673000", "130620.676000", "130620.679000", "130620.681000", "130620.684000", "130620.687000", "130620.689000", "130620.692000", "130620.695000", "130620.698000", "130620.700000", "130700.648000", "130700.651000", "130700.653000", "130700.656000", "130700.659000", "130700.661000", "130700.672000", "130700.674000", "130700.677000", "130700.680000", "130700.682000", "130700.685000", "130700.688000", "130700.690000", "130700.693000", "130700.696000", "130700.710000", "130700.713000", "130700.716000", "130700.718000", "130740.648000", "130740.651000", "130740.653000", "130740.656000", "130740.659000", "130740.661000", "130740.664000", "130740.667000", "130740.670000", "130740.672000", "130740.675000", "130740.677000", "130740.680000", "130740.683000", "130740.686000", "130740.688000", "130740.691000", "130740.694000", "130740.696000", "130740.699000", "130820.649000", "130820.652000", "130820.654000", "130820.657000", "130820.660000", "130820.662000", "130820.673000", "130820.676000", "130820.679000", "130820.682000", "130820.684000", "130820.687000", "130820.690000", "130820.692000", "130820.695000", "130820.698000", "130820.700000", "130820.703000", "130820.706000", "130820.708000", "130900.648000", "130900.651000", "130900.653000", "130900.656000", "130900.659000", "130900.662000", "130900.664000", "130900.667000", "130900.670000", "130900.672000", "130900.675000", "130900.678000", "130900.680000", "130900.683000", "130900.686000", "130900.699000", "130900.702000", "130900.705000", "130900.708000", "130900.710000", "130940.648000", "130940.651000", "130940.653000", "130940.656000", "130940.659000", "130940.662000", "130940.664000", "130940.667000", "130940.670000", "130940.672000", "130940.675000", "130940.678000", "130940.680000", "130940.683000", "130940.691000", "130940.694000", "130940.697000", "130940.700000", "130940.702000", "130940.705000", "131020.648000", "131020.656000", "131020.659000", "131020.661000", "131020.664000", "131020.667000", "131020.669000", "131020.672000", "131020.675000", "131020.678000", "131020.680000", "131020.683000", "131020.686000", "131020.688000", "131020.691000", "131020.693000", "131020.696000", "131020.699000", "131020.702000", "131020.704000", "131100.649000", "131100.652000", "131100.654000", "131100.657000", "131100.660000", "131100.662000", "131100.665000", "131100.668000", "131100.671000", "131100.673000", "131100.676000", "131100.679000", "131100.681000", "131100.684000", "131100.687000", "131100.689000", "131100.692000", "131100.695000", "131100.698000", "131100.700000", "131140.648000", "131140.651000", "131140.653000", "131140.656000", "131140.659000", "131140.661000", "131140.664000", "131140.667000", "131140.670000", "131140.672000", "131140.675000", "131140.678000", "131140.680000", "131140.683000", "131140.686000", "131140.688000", "131140.691000", "131140.694000", "131140.696000", "131140.699000", "131220.648000", "131220.651000", "131220.653000", "131220.662000", "131220.665000", "131220.668000", "131220.671000", "131220.673000", "131220.676000", "131220.683000", "131220.686000", "131220.688000", "131220.691000", "131220.694000", "131220.696000", "131220.699000", "131220.702000", "131220.705000", "131220.707000", "131220.710000", "131300.649000", "131300.652000", "131300.654000", "131300.657000", "131300.660000", "131300.663000", "131300.665000", "131300.668000", "131300.671000", "131300.674000", "131300.676000", "131300.679000", "131300.682000", "131300.684000", "131300.687000", "131300.690000", "131300.692000", "131300.695000", "131300.698000", "131300.700000", "131340.648000", "131340.651000", "131340.653000", "131340.656000", "131340.659000", "131340.661000", "131340.664000", "131340.667000", "131340.670000", "131340.672000", "131340.675000", "131340.678000", "131340.680000", "131340.683000", "131340.686000", "131340.688000", "131340.691000", "131340.694000", "131340.696000", "131340.699000", "131415.058000", "131415.062000", "131415.064000", "131415.067000", "131415.070000", "131415.072000", "131415.075000", "131415.078000", "131415.081000", "131415.084000", "131415.086000", "131415.089000", "131415.092000", "131415.095000", "131415.098000", "131415.100000", "131415.103000", "131415.106000"],
      "DataSetTrailingPadding": [
        "\u0000\u0000\u0000\u0000\u0000\u0000\u0000\u0000\u0000\u0000\u0000\u0000\u0000\u0000\u0000\u0000\u0000\u0000\u0000\u0000\u0000\u0000\u0000\u0000\u0000\u0000\u0000\u0000\u0000\u0000\u0000\u0000\u0000\u0000\u0000\u0000\u0000\u0000\u0000\u0000\u0000\u0000\u0000\u0000\u0000\u0000",
        "\u0000\u0000\u0000\u0000\u0000\u0000\u0000\u0000\u0000\u0000\u0000\u0000\u0000\u0000\u0000\u0000\u0000\u0000\u0000\u0000\u0000\u0000\u0000\u0000\u0000\u0000\u0000\u0000\u0000\u0000\u0000\u0000\u0000\u0000\u0000\u0000\u0000\u0000\u0000\u0000\u0000\u0000\u0000\u0000\u0000\u0000",
        "\u0000\u0000\u0000\u0000\u0000\u0000\u0000\u0000\u0000\u0000\u0000\u0000\u0000\u0000\u0000\u0000\u0000\u0000\u0000\u0000\u0000\u0000\u0000\u0000\u0000\u0000\u0000\u0000\u0000\u0000\u0000\u0000\u0000\u0000\u0000\u0000\u0000\u0000\u0000\u0000\u0000\u0000\u0000\u0000\u0000\u0000",
        "\u0000\u0000\u0000\u0000\u0000\u0000\u0000\u0000\u0000\u0000\u0000\u0000\u0000\u0000\u0000\u0000\u0000\u0000\u0000\u0000\u0000\u0000\u0000\u0000\u0000\u0000\u0000\u0000\u0000\u0000\u0000\u0000\u0000\u0000\u0000\u0000\u0000\u0000\u0000\u0000\u0000\u0000\u0000\u0000\u0000\u0000",
        "\u0000\u0000\u0000\u0000\u0000\u0000\u0000\u0000\u0000\u0000\u0000\u0000\u0000\u0000\u0000\u0000\u0000\u0000\u0000\u0000\u0000\u0000\u0000\u0000\u0000\u0000\u0000\u0000\u0000\u0000\u0000\u0000\u0000\u0000\u0000\u0000\u0000\u0000\u0000\u0000\u0000\u0000\u0000\u0000",
        "\u0000\u0000\u0000\u0000\u0000\u0000\u0000\u0000\u0000\u0000\u0000\u0000\u0000\u0000\u0000\u0000\u0000\u0000\u0000\u0000\u0000\u0000\u0000\u0000\u0000\u0000\u0000\u0000\u0000\u0000\u0000\u0000\u0000\u0000\u0000\u0000\u0000\u0000\u0000\u0000\u0000\u0000\u0000\u0000",
        "\u0000\u0000\u0000\u0000\u0000\u0000\u0000\u0000\u0000\u0000\u0000\u0000\u0000\u0000\u0000\u0000\u0000\u0000\u0000\u0000\u0000\u0000\u0000\u0000\u0000\u0000\u0000\u0000\u0000\u0000\u0000\u0000\u0000\u0000\u0000\u0000\u0000\u0000\u0000\u0000\u0000\u0000\u0000\u0000",
        "\u0000\u0000\u0000\u0000\u0000\u0000\u0000\u0000\u0000\u0000\u0000\u0000\u0000\u0000\u0000\u0000\u0000\u0000\u0000\u0000\u0000\u0000\u0000\u0000\u0000\u0000\u0000\u0000\u0000\u0000\u0000\u0000\u0000\u0000\u0000\u0000\u0000\u0000\u0000\u0000\u0000\u0000\u0000\u0000",
        "\u0000\u0000\u0000\u0000\u0000\u0000\u0000\u0000\u0000\u0000\u0000\u0000\u0000\u0000\u0000\u0000\u0000\u0000\u0000\u0000\u0000\u0000\u0000\u0000\u0000\u0000\u0000\u0000\u0000\u0000\u0000\u0000\u0000\u0000\u0000\u0000\u0000\u0000\u0000\u0000\u0000\u0000\u0000\u0000",
        "\u0000\u0000\u0000\u0000\u0000\u0000\u0000\u0000\u0000\u0000\u0000\u0000\u0000\u0000\u0000\u0000\u0000\u0000\u0000\u0000\u0000\u0000\u0000\u0000\u0000\u0000\u0000\u0000\u0000\u0000\u0000\u0000\u0000\u0000\u0000\u0000\u0000\u0000\u0000\u0000\u0000\u0000\u0000\u0000",
        "\u0000\u0000\u0000\u0000\u0000\u0000\u0000\u0000\u0000\u0000\u0000\u0000\u0000\u0000\u0000\u0000\u0000\u0000\u0000\u0000\u0000\u0000\u0000\u0000\u0000\u0000\u0000\u0000\u0000\u0000\u0000\u0000\u0000\u0000\u0000\u0000\u0000\u0000\u0000\u0000\u0000\u0000\u0000\u0000",
        "\u0000\u0000\u0000\u0000\u0000\u0000\u0000\u0000\u0000\u0000\u0000\u0000\u0000\u0000\u0000\u0000\u0000\u0000\u0000\u0000\u0000\u0000\u0000\u0000\u0000\u0000\u0000\u0000\u0000\u0000\u0000\u0000\u0000\u0000\u0000\u0000\u0000\u0000\u0000\u0000\u0000\u0000\u0000\u0000",
        "\u0000\u0000\u0000\u0000\u0000\u0000\u0000\u0000\u0000\u0000\u0000\u0000\u0000\u0000\u0000\u0000\u0000\u0000\u0000\u0000\u0000\u0000\u0000\u0000\u0000\u0000\u0000\u0000\u0000\u0000\u0000\u0000\u0000\u0000\u0000\u0000\u0000\u0000\u0000\u0000\u0000\u0000\u0000\u0000",
        "\u0000\u0000\u0000\u0000\u0000\u0000\u0000\u0000\u0000\u0000\u0000\u0000\u0000\u0000\u0000\u0000\u0000\u0000\u0000\u0000\u0000\u0000\u0000\u0000\u0000\u0000\u0000\u0000\u0000\u0000\u0000\u0000\u0000\u0000\u0000\u0000\u0000\u0000\u0000\u0000\u0000\u0000\u0000\u0000",
        "\u0000\u0000\u0000\u0000\u0000\u0000\u0000\u0000\u0000\u0000\u0000\u0000\u0000\u0000\u0000\u0000\u0000\u0000\u0000\u0000\u0000\u0000\u0000\u0000\u0000\u0000\u0000\u0000\u0000\u0000\u0000\u0000\u0000\u0000\u0000\u0000\u0000\u0000\u0000\u0000\u0000\u0000\u0000\u0000",
        "\u0000\u0000\u0000\u0000\u0000\u0000\u0000\u0000\u0000\u0000\u0000\u0000\u0000\u0000\u0000\u0000\u0000\u0000\u0000\u0000\u0000\u0000\u0000\u0000\u0000\u0000\u0000\u0000\u0000\u0000\u0000\u0000\u0000\u0000\u0000\u0000\u0000\u0000\u0000\u0000\u0000\u0000\u0000\u0000",
        "\u0000\u0000\u0000\u0000\u0000\u0000\u0000\u0000\u0000\u0000\u0000\u0000\u0000\u0000\u0000\u0000\u0000\u0000\u0000\u0000\u0000\u0000\u0000\u0000\u0000\u0000\u0000\u0000\u0000\u0000\u0000\u0000\u0000\u0000\u0000\u0000\u0000\u0000\u0000\u0000\u0000\u0000\u0000\u0000",
        "\u0000\u0000\u0000\u0000\u0000\u0000\u0000\u0000\u0000\u0000\u0000\u0000\u0000\u0000\u0000\u0000\u0000\u0000\u0000\u0000\u0000\u0000\u0000\u0000\u0000\u0000\u0000\u0000\u0000\u0000\u0000\u0000\u0000\u0000\u0000\u0000\u0000\u0000\u0000\u0000\u0000\u0000\u0000\u0000",
        "\u0000\u0000\u0000\u0000\u0000\u0000\u0000\u0000\u0000\u0000\u0000\u0000\u0000\u0000\u0000\u0000\u0000\u0000\u0000\u0000\u0000\u0000\u0000\u0000\u0000\u0000\u0000\u0000\u0000\u0000\u0000\u0000\u0000\u0000\u0000\u0000\u0000\u0000\u0000\u0000\u0000\u0000\u0000\u0000",
        "\u0000\u0000\u0000\u0000\u0000\u0000\u0000\u0000\u0000\u0000\u0000\u0000\u0000\u0000\u0000\u0000\u0000\u0000\u0000\u0000\u0000\u0000\u0000\u0000\u0000\u0000\u0000\u0000\u0000\u0000\u0000\u0000\u0000\u0000\u0000\u0000\u0000\u0000\u0000\u0000\u0000\u0000\u0000\u0000",
        "\u0000\u0000\u0000\u0000\u0000\u0000\u0000\u0000\u0000\u0000\u0000\u0000\u0000\u0000\u0000\u0000\u0000\u0000\u0000\u0000\u0000\u0000\u0000\u0000\u0000\u0000\u0000\u0000\u0000\u0000\u0000\u0000\u0000\u0000\u0000\u0000\u0000\u0000\u0000\u0000\u0000\u0000\u0000\u0000",
        "\u0000\u0000\u0000\u0000\u0000\u0000\u0000\u0000\u0000\u0000\u0000\u0000\u0000\u0000\u0000\u0000\u0000\u0000\u0000\u0000\u0000\u0000\u0000\u0000\u0000\u0000\u0000\u0000\u0000\u0000\u0000\u0000\u0000\u0000\u0000\u0000\u0000\u0000\u0000\u0000\u0000\u0000\u0000\u0000",
        "\u0000\u0000\u0000\u0000\u0000\u0000\u0000\u0000\u0000\u0000\u0000\u0000\u0000\u0000\u0000\u0000\u0000\u0000\u0000\u0000\u0000\u0000\u0000\u0000\u0000\u0000\u0000\u0000\u0000\u0000\u0000\u0000\u0000\u0000\u0000\u0000\u0000\u0000\u0000\u0000\u0000\u0000\u0000\u0000",
        "\u0000\u0000\u0000\u0000\u0000\u0000\u0000\u0000\u0000\u0000\u0000\u0000\u0000\u0000\u0000\u0000\u0000\u0000\u0000\u0000\u0000\u0000\u0000\u0000\u0000\u0000\u0000\u0000\u0000\u0000\u0000\u0000\u0000\u0000\u0000\u0000\u0000\u0000\u0000\u0000\u0000\u0000\u0000\u0000",
        "\u0000\u0000\u0000\u0000\u0000\u0000\u0000\u0000\u0000\u0000\u0000\u0000\u0000\u0000\u0000\u0000\u0000\u0000\u0000\u0000\u0000\u0000\u0000\u0000\u0000\u0000\u0000\u0000\u0000\u0000\u0000\u0000\u0000\u0000\u0000\u0000\u0000\u0000\u0000\u0000\u0000\u0000\u0000\u0000",
        "\u0000\u0000\u0000\u0000\u0000\u0000\u0000\u0000\u0000\u0000\u0000\u0000\u0000\u0000\u0000\u0000\u0000\u0000\u0000\u0000\u0000\u0000\u0000\u0000\u0000\u0000\u0000\u0000\u0000\u0000\u0000\u0000\u0000\u0000\u0000\u0000\u0000\u0000\u0000\u0000\u0000\u0000\u0000\u0000",
        "\u0000\u0000\u0000\u0000\u0000\u0000\u0000\u0000\u0000\u0000\u0000\u0000\u0000\u0000\u0000\u0000\u0000\u0000\u0000\u0000\u0000\u0000\u0000\u0000\u0000\u0000\u0000\u0000\u0000\u0000\u0000\u0000\u0000\u0000\u0000\u0000\u0000\u0000\u0000\u0000\u0000\u0000\u0000\u0000",
        "\u0000\u0000\u0000\u0000\u0000\u0000\u0000\u0000\u0000\u0000\u0000\u0000\u0000\u0000\u0000\u0000\u0000\u0000\u0000\u0000\u0000\u0000\u0000\u0000\u0000\u0000\u0000\u0000\u0000\u0000\u0000\u0000\u0000\u0000\u0000\u0000\u0000\u0000\u0000\u0000\u0000\u0000\u0000\u0000",
        "\u0000\u0000\u0000\u0000\u0000\u0000\u0000\u0000\u0000\u0000\u0000\u0000\u0000\u0000\u0000\u0000\u0000\u0000\u0000\u0000\u0000\u0000\u0000\u0000\u0000\u0000\u0000\u0000\u0000\u0000\u0000\u0000\u0000\u0000\u0000\u0000\u0000\u0000\u0000\u0000\u0000\u0000\u0000\u0000",
        "\u0000\u0000\u0000\u0000\u0000\u0000\u0000\u0000\u0000\u0000\u0000\u0000\u0000\u0000\u0000\u0000\u0000\u0000\u0000\u0000\u0000\u0000\u0000\u0000\u0000\u0000\u0000\u0000\u0000\u0000\u0000\u0000\u0000\u0000\u0000\u0000\u0000\u0000\u0000\u0000\u0000\u0000\u0000\u0000",
        "\u0000\u0000\u0000\u0000\u0000\u0000\u0000\u0000\u0000\u0000\u0000\u0000\u0000\u0000\u0000\u0000\u0000\u0000\u0000\u0000\u0000\u0000\u0000\u0000\u0000\u0000\u0000\u0000\u0000\u0000\u0000\u0000\u0000\u0000\u0000\u0000\u0000\u0000\u0000\u0000\u0000\u0000\u0000\u0000",
        "\u0000\u0000\u0000\u0000\u0000\u0000\u0000\u0000\u0000\u0000\u0000\u0000\u0000\u0000\u0000\u0000\u0000\u0000\u0000\u0000\u0000\u0000\u0000\u0000\u0000\u0000\u0000\u0000\u0000\u0000\u0000\u0000\u0000\u0000\u0000\u0000\u0000\u0000\u0000\u0000\u0000\u0000\u0000\u0000",
        "\u0000\u0000\u0000\u0000\u0000\u0000\u0000\u0000\u0000\u0000\u0000\u0000\u0000\u0000\u0000\u0000\u0000\u0000\u0000\u0000\u0000\u0000\u0000\u0000\u0000\u0000\u0000\u0000\u0000\u0000\u0000\u0000\u0000\u0000\u0000\u0000\u0000\u0000\u0000\u0000\u0000\u0000\u0000\u0000",
        "\u0000\u0000\u0000\u0000\u0000\u0000\u0000\u0000\u0000\u0000\u0000\u0000\u0000\u0000\u0000\u0000\u0000\u0000\u0000\u0000\u0000\u0000\u0000\u0000\u0000\u0000\u0000\u0000\u0000\u0000\u0000\u0000\u0000\u0000\u0000\u0000\u0000\u0000\u0000\u0000\u0000\u0000\u0000\u0000",
        "\u0000\u0000\u0000\u0000\u0000\u0000\u0000\u0000\u0000\u0000\u0000\u0000\u0000\u0000\u0000\u0000\u0000\u0000\u0000\u0000\u0000\u0000\u0000\u0000\u0000\u0000\u0000\u0000\u0000\u0000\u0000\u0000\u0000\u0000\u0000\u0000\u0000\u0000\u0000\u0000\u0000\u0000\u0000\u0000",
        "\u0000\u0000\u0000\u0000\u0000\u0000\u0000\u0000\u0000\u0000\u0000\u0000\u0000\u0000\u0000\u0000\u0000\u0000\u0000\u0000\u0000\u0000\u0000\u0000\u0000\u0000\u0000\u0000\u0000\u0000\u0000\u0000\u0000\u0000\u0000\u0000\u0000\u0000\u0000\u0000\u0000\u0000\u0000\u0000",
        "\u0000\u0000\u0000\u0000\u0000\u0000\u0000\u0000\u0000\u0000\u0000\u0000\u0000\u0000\u0000\u0000\u0000\u0000\u0000\u0000\u0000\u0000\u0000\u0000\u0000\u0000\u0000\u0000\u0000\u0000\u0000\u0000\u0000\u0000\u0000\u0000\u0000\u0000\u0000\u0000\u0000\u0000\u0000\u0000",
        "\u0000\u0000\u0000\u0000\u0000\u0000\u0000\u0000\u0000\u0000\u0000\u0000\u0000\u0000\u0000\u0000\u0000\u0000\u0000\u0000\u0000\u0000\u0000\u0000\u0000\u0000\u0000\u0000\u0000\u0000\u0000\u0000\u0000\u0000\u0000\u0000\u0000\u0000\u0000\u0000\u0000\u0000\u0000\u0000",
        "\u0000\u0000\u0000\u0000\u0000\u0000\u0000\u0000\u0000\u0000\u0000\u0000\u0000\u0000\u0000\u0000\u0000\u0000\u0000\u0000\u0000\u0000\u0000\u0000\u0000\u0000\u0000\u0000\u0000\u0000\u0000\u0000\u0000\u0000\u0000\u0000\u0000\u0000\u0000\u0000\u0000\u0000\u0000\u0000",
        "\u0000\u0000\u0000\u0000\u0000\u0000\u0000\u0000\u0000\u0000\u0000\u0000\u0000\u0000\u0000\u0000\u0000\u0000\u0000\u0000\u0000\u0000\u0000\u0000\u0000\u0000\u0000\u0000\u0000\u0000\u0000\u0000\u0000\u0000\u0000\u0000\u0000\u0000\u0000\u0000\u0000\u0000\u0000\u0000",
