{
  "AcquisitionMatrixPE": 70,
  "AcquisitionNumber": 1,
  "AcquisitionTime": "14:31:34.382500",
  "BandwidthPerPixelPhaseEncode": 51.948,
  "BaseResolution": 70,
  "BodyPartExamined": "HEAD",
  "CoilCombinationMethod": "Sum of Squares",
  "ConsistencyInfo": "N4_VE11C_LATEST_20160120",
  "ConversionSoftware": "dcm2niix",
  "ConversionSoftwareVersion": "v1.0.20220720",
  "DerivedVendorReportedEchoSpacing": 0.000550001,
  "DeviceSerialNumber": "66061",
  "DwellTime": 3.3e-06,
  "EchoTime": 0.022,
  "EchoTrainLength": 35,
  "EffectiveEchoSpacing": 0.000275,
  "FlipAngle": 90,
  "HeudiconvVersion": "1.1.1",
  "ImageOrientationPatientDICOM": [0.999998, 0.00151649, 0.00146153, -0.00122175, 0.982934, -0.183954],
  "ImageOrientationText": "Tra>Cor(-10.6)>Sag(0.1)",
  "ImageType": [
    "ORIGINAL",
    "PRIMARY",
    "M",
    "ND",
    "NORM",
    "MOSAIC"
],
  "ImagingFrequency": 123.255,
  "InPlanePhaseEncodingDirectionDICOM": "COL",
  "InstitutionAddress": "Street StreetNo,City/1c4204/,District,KR,ZIP",
  "InstitutionName": "SKKU",
  "InstitutionalDepartmentName": "Department",
  "MRAcquisitionType": "2D",
  "MagneticFieldStrength": 3,
  "Manufacturer": "Siemens",
  "ManufacturersModelName": "Prisma",
  "MatrixCoilMode": "GRAPPA",
  "Modality": "MR",
  "NonlinearGradientCorrection": false,
  "ParallelReductionFactorInPlane": 2,
  "PartialFourier": 1,
  "PatientPosition": "HFS",
  "PercentPhaseFOV": 100,
  "PercentSampling": 100,
  "PhaseEncodingDirection": "j-",
  "PhaseEncodingSteps": 70,
  "PhaseResolution": 1,
  "PixelBandwidth": 2165,
  "ProcedureStepDescription": "Head^PI:Others",
  "ProtocolName": "BOLD_ep2d_3x3x3_feature1",
  "PulseSequenceDetails": "%SiemensSeq%\\ep2d_pace",
  "ReceiveCoilActiveElements": "HC1-7",
  "ReceiveCoilName": "HeadNeck_64",
  "ReconMatrixPE": 70,
  "RefLinesPE": 24,
  "RepetitionTime": 2,
  "SAR": 0.132811,
  "ScanOptions": "FS",
  "ScanningSequence": "EP",
  "SequenceName": "*epfid2d1_70",
  "SequenceVariant": "SK",
  "SeriesDescription": "BOLD_ep2d_3x3x3_feature1",
  "SeriesNumber": 4,
  "ShimSetting": [5057, 3736, 4472, 313, -41, -2, -62, 47],
  "SliceThickness": 3,
  "SliceTiming": [0.99, 0, 1.035, 0.045, 1.0825, 0.0925, 1.13, 0.14, 1.1775, 0.1875, 1.225, 0.235, 1.2725, 0.2825, 1.32, 0.33, 1.365, 0.375, 1.4125, 0.4225, 1.46, 0.47, 1.5075, 0.5175, 1.555, 0.565, 1.6025, 0.6125, 1.65, 0.66, 1.695, 0.705, 1.7425, 0.7525, 1.79, 0.8, 1.8375, 0.8475, 1.885, 0.895, 1.9325, 0.9425],
  "SoftwareVersions": "syngo MR E11",
  "SpacingBetweenSlices": 3,
  "StationName": "AWP66061",
  "TaskName": "feature",
  "TotalReadoutTime": 0.018975,
  "TxRefAmp": 236.327,
  "dcmmeta_affine": [
    [-2.999993324279785, -0.0036652612034231424, 0.005146656651049852, 105.7611312866211],
    [-0.004549454897642136, 2.9488024711608887, -0.5518540143966675, -92.99810791015625],
    [0.0043845949694514275, 0.5518606305122375, 2.9488015174865723, -54.58598709106445],
    [0.0, 0.0, 0.0, 1.0]
],
  "dcmmeta_reorient_transform": [
    [0.0, -1.0, 0.0, 69.0],
    [1.0, 0.0, 0.0, 0.0],
    [0.0, 0.0, -1.0, 41.0],
    [0.0, 0.0, 0.0, 1.0]
],
  "dcmmeta_shape": [70, 70, 42, 221],
  "dcmmeta_slice_dim": 2,
  "dcmmeta_version": 0.6,
  "global": {
    "const": {
      "AcquisitionMatrix": [70, 0, 0, 70],
      "AngioFlag": "N",
      "BitsAllocated": 16,
      "BitsStored": 12,
      "BodyPartExamined": "HEAD",
      "Columns": 490,
      "EchoNumbers": 1,
      "EchoTime": 22.0,
      "EchoTrainLength": 35,
      "FlipAngle": 90.0,
      "HighBit": 11,
      "ImageOrientationPatient": [0.99999778209676, 0.00151648502008, 0.00146153164525, -0.0012217537537, 0.98293418054735, -0.1839535376922],
      "ImagePositionPatient": [-734.9481388273, -708.04717417436, 219.36322234489],
      "ImageType": [
        "ORIGINAL",
        "PRIMARY",
        "M",
        "ND",
        "NORM",
        "MOSAIC"
],
      "ImagedNucleus": "1H",
      "ImagingFrequency": 123.254613,
      "InPlanePhaseEncodingDirection": "COL",
      "MRAcquisitionType": "2D",
      "MagneticFieldStrength": 3.0,
      "Manufacturer": "SIEMENS",
      "ManufacturerModelName": "Prisma",
      "Modality": "MR",
      "NumberOfAverages": 1.0,
      "NumberOfPhaseEncodingSteps": 70,
      "PercentPhaseFieldOfView": 100.0,
      "PercentSampling": 100.0,
      "PerformedProcedureStepStartTime": "141628.147000",
      "PhotometricInterpretation": "MONOCHROME2",
      "PixelBandwidth": 2165.0,
      "PixelRepresentation": 0,
      "PixelSpacing": [3.0, 3.0],
      "ProtocolName": "BOLD_ep2d_3x3x3_feature1",
      "RepetitionTime": 2000.0,
      "Rows": 490,
      "SAR": 0.13281139711735,
      "SamplesPerPixel": 1,
      "ScanOptions": "FS",
      "ScanningSequence": "EP",
      "SequenceName": "*epfid2d1_70",
      "SequenceVariant": "SK",
      "SeriesDescription": "BOLD_ep2d_3x3x3_feature1",
      "SeriesNumber": 4,
      "SeriesTime": "143223.191000",
      "SliceLocation": 86.634149942738,
      "SliceThickness": 3.0,
      "SmallestImagePixelValue": 0,
      "SoftwareVersions": "syngo MR E11",
      "SpacingBetweenSlices": 2.9999999942056,
      "SpecificCharacterSet": "ISO_IR 100",
      "StudyID": "1",
      "StudyTime": "141628.084000",
      "TransmitCoilName": "Body",
      "VariableFlipAngleFlag": "N",
      "WindowCenterWidthExplanation": "Algo1",
      "dBdt": 0.0},
    "slices": {}
  },
  "time": {
    "samples": {
      "AcquisitionNumber": [1, 2, 3, 4, 5, 6, 7, 8, 9, 10, 11, 12, 13, 14, 15, 16, 17, 18, 19, 20, 21, 22, 23, 24, 25, 26, 27, 28, 29, 30, 31, 32, 33, 34, 35, 36, 37, 38, 39, 40, 41, 42, 43, 44, 45, 46, 47, 48, 49, 50, 51, 52, 53, 54, 55, 56, 57, 58, 59, 60, 61, 62, 63, 64, 65, 66, 67, 68, 69, 70, 71, 72, 73, 74, 75, 76, 77, 78, 79, 80, 81, 82, 83, 84, 85, 86, 87, 88, 89, 90, 91, 92, 93, 94, 95, 96, 97, 98, 99, 100, 101, 102, 103, 104, 105, 106, 107, 108, 109, 110, 111, 112, 113, 114, 115, 116, 117, 118, 119, 120, 121, 122, 123, 124, 125, 126, 127, 128, 129, 130, 131, 132, 133, 134, 135, 136, 137, 138, 139, 140, 141, 142, 143, 144, 145, 146, 147, 148, 149, 150, 151, 152, 153, 154, 155, 156, 157, 158, 159, 160, 161, 162, 163, 164, 165, 166, 167, 168, 169, 170, 171, 172, 173, 174, 175, 176, 177, 178, 179, 180, 181, 182, 183, 184, 185, 186, 187, 188, 189, 190, 191, 192, 193, 194, 195, 196, 197, 198, 199, 200, 201, 202, 203, 204, 205, 206, 207, 208, 209, 210, 211, 212, 213, 214, 215, 216, 217, 218, 219, 220, 221],
      "AcquisitionTime": ["143134.382500", "143136.382500", "143138.382500", "143140.382500", "143142.382500", "143144.382500", "143146.382500", "143148.382500", "143150.382500", "143152.382500", "143154.382500", "143156.382500", "143158.382500", "143200.382500", "143202.382500", "143204.382500", "143206.382500", "143208.382500", "143210.382500", "143212.382500", "143214.382500", "143216.382500", "143218.382500", "143220.382500", "143222.382500", "143224.382500", "143226.382500", "143228.382500", "143230.382500", "143232.382500", "143234.382500", "143236.382500", "143238.382500", "143240.382500", "143242.382500", "143244.382500", "143246.382500", "143248.382500", "143250.382500", "143252.382500", "143254.382500", "143256.382500", "143258.382500", "143300.382500", "143302.382500", "143304.382500", "143306.382500", "143308.382500", "143310.382500", "143312.382500", "143314.382500", "143316.382500", "143318.382500", "143320.382500", "143322.382500", "143324.382500", "143326.382500", "143328.382500", "143330.382500", "143332.382500", "143334.382500", "143336.382500", "143338.382500", "143340.382500", "143342.382500", "143344.382500", "143346.382500", "143348.382500", "143350.382500", "143352.382500", "143354.382500", "143356.382500", "143358.382500", "143400.382500", "143402.382500", "143404.382500", "143406.382500", "143408.382500", "143410.382500", "143412.382500", "143414.382500", "143416.382500", "143418.382500", "143420.382500", "143422.382500", "143424.382500", "143426.382500", "143428.382500", "143430.382500", "143432.382500", "143434.382500", "143436.382500", "143438.382500", "143440.382500", "143442.382500", "143444.382500", "143446.382500", "143448.382500", "143450.382500", "143452.382500", "143454.382500", "143456.382500", "143458.382500", "143500.382500", "143502.382500", "143504.382500", "143506.382500", "143508.382500", "143510.382500", "143512.382500", "143514.382500", "143516.382500", "143518.382500", "143520.382500", "143522.382500", "143524.382500", "143526.382500", "143528.382500", "143530.382500", "143532.382500", "143534.382500", "143536.382500", "143538.382500", "143540.382500", "143542.382500", "143544.382500", "143546.382500", "143548.382500", "143550.382500", "143552.382500", "143554.382500", "143556.382500", "143558.382500", "143600.382500", "143602.382500", "143604.382500", "143606.382500", "143608.382500", "143610.382500", "143612.382500", "143614.382500", "143616.382500", "143618.382500", "143620.382500", "143622.382500", "143624.382500", "143626.382500", "143628.382500", "143630.382500", "143632.382500", "143634.382500", "143636.382500", "143638.382500", "143640.382500", "143642.382500", "143644.382500", "143646.382500", "143648.382500", "143650.382500", "143652.382500", "143654.382500", "143656.382500", "143658.382500", "143700.382500", "143702.382500", "143704.382500", "143706.382500", "143708.382500", "143710.382500", "143712.382500", "143714.382500", "143716.382500", "143718.382500", "143720.382500", "143722.382500", "143724.382500", "143726.382500", "143728.382500", "143730.382500", "143732.382500", "143734.382500", "143736.382500", "143738.382500", "143740.382500", "143742.382500", "143744.382500", "143746.382500", "143748.382500", "143750.382500", "143752.382500", "143754.382500", "143756.382500", "143758.382500", "143800.382500", "143802.382500", "143804.382500", "143806.382500", "143808.382500", "143810.382500", "143812.382500", "143814.382500", "143816.382500", "143818.382500", "143820.382500", "143822.382500", "143824.382500", "143826.382500", "143828.382500", "143830.382500", "143832.382500", "143834.382500", "143836.382500", "143838.382500", "143840.382500", "143842.382500", "143844.382500", "143846.382500", "143848.382500", "143850.382500", "143852.382500", "143854.382500"],
      "ContentTime": ["143223.194000", "143223.198000", "143223.211000", "143223.213000", "143223.216000", "143223.219000", "143223.221000", "143223.224000", "143223.226000", "143223.229000", "143223.232000", "143223.234000", "143223.237000", "143223.240000", "143223.248000", "143223.255000", "143223.258000", "143223.261000", "143223.263000", "143223.266000", "143223.268000", "143223.271000", "143223.274000", "143223.276000", "143303.190000", "143303.192000", "143303.195000", "143303.198000", "143303.200000", "143303.203000", "143303.206000", "143303.208000", "143303.211000", "143303.213000", "143303.216000", "143303.219000", "143303.221000", "143303.224000", "143303.226000", "143303.229000", "143303.232000", "143303.234000", "143303.237000", "143303.239000", "143343.190000", "143343.192000", "143343.195000", "143343.198000", "143343.201000", "143343.203000", "143343.206000", "143343.209000", "143343.211000", "143343.214000", "143343.217000", "143343.219000", "143343.222000", "143343.224000", "143343.227000", "143343.229000", "143343.232000", "143343.235000", "143343.237000", "143343.240000", "143423.190000", "143423.193000", "143423.195000", "143423.198000", "143423.201000", "143423.203000", "143423.206000", "143423.208000", "143423.211000", "143423.214000", "143423.216000", "143423.219000", "143423.222000", "143423.224000", "143423.227000", "143423.229000", "143423.232000", "143423.235000", "143423.237000", "143423.240000", "143503.190000", "143503.192000", "143503.195000", "143503.198000", "143503.200000", "143503.203000", "143503.206000", "143503.208000", "143503.211000", "143503.213000", "143503.216000", "143503.219000", "143503.221000", "143503.224000", "143503.227000", "143503.229000", "143503.232000", "143503.234000", "143503.237000", "143503.240000", "143543.190000", "143543.192000", "143543.195000", "143543.198000", "143543.200000", "143543.203000", "143543.206000", "143543.208000", "143543.211000", "143543.214000", "143543.216000", "143543.228000", "143543.231000", "143543.233000", "143543.236000", "143543.252000", "143543.254000", "143543.257000", "143543.259000", "143543.262000", "143623.190000", "143623.192000", "143623.195000", "143623.198000", "143623.200000", "143623.203000", "143623.206000", "143623.208000", "143623.211000", "143623.214000", "143623.216000", "143623.219000", "143623.222000", "143623.224000", "143623.227000", "143623.229000", "143623.232000", "143623.235000", "143623.237000", "143623.240000", "143703.190000", "143703.192000", "143703.195000", "143703.198000", "143703.200000", "143703.203000", "143703.206000", "143703.208000", "143703.211000", "143703.214000", "143703.216000", "143703.219000", "143703.222000", "143703.224000", "143703.227000", "143703.229000", "143703.232000", "143703.235000", "143703.237000", "143703.240000", "143743.190000", "143743.192000", "143743.195000", "143743.198000", "143743.200000", "143743.203000", "143743.206000", "143743.208000", "143743.211000", "143743.214000", "143743.216000", "143743.219000", "143743.222000", "143743.224000", "143743.227000", "143743.229000", "143743.232000", "143743.235000", "143743.237000", "143743.240000", "143823.190000", "143823.193000", "143823.195000", "143823.198000", "143823.201000", "143823.203000", "143823.206000", "143823.208000", "143823.211000", "143823.214000", "143823.216000", "143823.219000", "143823.222000", "143823.224000", "143823.227000", "143823.229000", "143823.232000", "143823.235000", "143823.237000", "143823.240000", "143856.140000", "143856.143000", "143856.146000", "143856.148000", "143856.151000", "143856.154000", "143856.157000", "143856.160000", "143856.162000", "143856.165000", "143856.169000", "143856.173000", "143856.176000", "143856.179000", "143856.182000", "143856.189000", "143856.192000"],
      "InstanceCreationTime": ["143223.194000", "143223.198000", "143223.211000", "143223.213000", "143223.216000", "143223.219000", "143223.221000", "143223.224000", "143223.226000", "143223.229000", "143223.232000", "143223.234000", "143223.237000", "143223.240000", "143223.248000", "143223.255000", "143223.258000", "143223.261000", "143223.263000", "143223.266000", "143223.268000", "143223.271000", "143223.274000", "143223.276000", "143303.190000", "143303.192000", "143303.195000", "143303.198000", "143303.200000", "143303.203000", "143303.206000", "143303.208000", "143303.211000", "143303.213000", "143303.216000", "143303.219000", "143303.221000", "143303.224000", "143303.226000", "143303.229000", "143303.232000", "143303.234000", "143303.237000", "143303.239000", "143343.190000", "143343.192000", "143343.195000", "143343.198000", "143343.201000", "143343.203000", "143343.206000", "143343.209000", "143343.211000", "143343.214000", "143343.217000", "143343.219000", "143343.222000", "143343.224000", "143343.227000", "143343.229000", "143343.232000", "143343.235000", "143343.237000", "143343.240000", "143423.190000", "143423.193000", "143423.195000", "143423.198000", "143423.201000", "143423.203000", "143423.206000", "143423.208000", "143423.211000", "143423.214000", "143423.216000", "143423.219000", "143423.222000", "143423.224000", "143423.227000", "143423.229000", "143423.232000", "143423.235000", "143423.237000", "143423.240000", "143503.190000", "143503.192000", "143503.195000", "143503.198000", "143503.200000", "143503.203000", "143503.206000", "143503.208000", "143503.211000", "143503.213000", "143503.216000", "143503.219000", "143503.221000", "143503.224000", "143503.227000", "143503.229000", "143503.232000", "143503.234000", "143503.237000", "143503.240000", "143543.190000", "143543.192000", "143543.195000", "143543.198000", "143543.200000", "143543.203000", "143543.206000", "143543.208000", "143543.211000", "143543.214000", "143543.216000", "143543.228000", "143543.231000", "143543.233000", "143543.236000", "143543.252000", "143543.254000", "143543.257000", "143543.259000", "143543.262000", "143623.190000", "143623.192000", "143623.195000", "143623.198000", "143623.200000", "143623.203000", "143623.206000", "143623.208000", "143623.211000", "143623.214000", "143623.216000", "143623.219000", "143623.222000", "143623.224000", "143623.227000", "143623.229000", "143623.232000", "143623.235000", "143623.237000", "143623.240000", "143703.190000", "143703.192000", "143703.195000", "143703.198000", "143703.200000", "143703.203000", "143703.206000", "143703.208000", "143703.211000", "143703.214000", "143703.216000", "143703.219000", "143703.222000", "143703.224000", "143703.227000", "143703.229000", "143703.232000", "143703.235000", "143703.237000", "143703.240000", "143743.190000", "143743.192000", "143743.195000", "143743.198000", "143743.200000", "143743.203000", "143743.206000", "143743.208000", "143743.211000", "143743.214000", "143743.216000", "143743.219000", "143743.222000", "143743.224000", "143743.227000", "143743.229000", "143743.232000", "143743.235000", "143743.237000", "143743.240000", "143823.190000", "143823.193000", "143823.195000", "143823.198000", "143823.201000", "143823.203000", "143823.206000", "143823.208000", "143823.211000", "143823.214000", "143823.216000", "143823.219000", "143823.222000", "143823.224000", "143823.227000", "143823.229000", "143823.232000", "143823.235000", "143823.237000", "143823.240000", "143856.140000", "143856.143000", "143856.146000", "143856.148000", "143856.151000", "143856.154000", "143856.157000", "143856.160000", "143856.162000", "143856.165000", "143856.169000", "143856.173000", "143856.176000", "143856.179000", "143856.182000", "143856.189000", "143856.192000"],
      "InstanceNumber": [1, 2, 3, 4, 5, 6, 7, 8, 9, 10, 11, 12, 13, 14, 15, 16, 17, 18, 19, 20, 21, 22, 23, 24, 25, 26, 27, 28, 29, 30, 31, 32, 33, 34, 35, 36, 37, 38, 39, 40, 41, 42, 43, 44, 45, 46, 47, 48, 49, 50, 51, 52, 53, 54, 55, 56, 57, 58, 59, 60, 61, 62, 63, 64, 65, 66, 67, 68, 69, 70, 71, 72, 73, 74, 75, 76, 77, 78, 79, 80, 81, 82, 83, 84, 85, 86, 87, 88, 89, 90, 91, 92, 93, 94, 95, 96, 97, 98, 99, 100, 101, 102, 103, 104, 105, 106, 107, 108, 109, 110, 111, 112, 113, 114, 115, 116, 117, 118, 119, 120, 121, 122, 123, 124, 125, 126, 127, 128, 129, 130, 131, 132, 133, 134, 135, 136, 137, 138, 139, 140, 141, 142, 143, 144, 145, 146, 147, 148, 149, 150, 151, 152, 153, 154, 155, 156, 157, 158, 159, 160, 161, 162, 163, 164, 165, 166, 167, 168, 169, 170, 171, 172, 173, 174, 175, 176, 177, 178, 179, 180, 181, 182, 183, 184, 185, 186, 187, 188, 189, 190, 191, 192, 193, 194, 195, 196, 197, 198, 199, 200, 201, 202, 203, 204, 205, 206, 207, 208, 209, 210, 211, 212, 213, 214, 215, 216, 217, 218, 219, 220, 221],
      "LargestImagePixelValue": [1729, 1720, 1834, 2760, 2227, 2350, 1957, 2475, 2339, 1711, 2060, 1778, 1836, 2270, 2215, 2548, 1915, 2057, 1813, 1817, 1902, 1965, 1911, 2036, 2302, 2356, 2180, 1904, 1788, 1941, 2213, 2414, 2211, 1796, 2065, 2283, 2426, 2335, 2160, 2205, 2056, 1962, 2255, 2109, 1783, 2047, 1856, 1832, 1778, 1795, 2151, 2262, 1762, 1737, 2000, 1767, 2079, 2441, 1939, 1926, 2420, 2097, 1762, 1760, 2373, 2277, 2153, 2010, 2332, 1654, 2355, 2037, 1780, 2024, 1963, 2156, 2237, 1750, 1920, 2264, 1749, 2150, 2244, 1898, 2356, 2414, 2358, 2039, 2029, 1739, 1880, 1848, 1702, 1994, 2897, 2267, 2048, 1758, 2172, 2483, 2176, 2135, 2006, 1998, 2476, 1661, 1966, 2106, 1703, 2471, 1650, 2119, 2083, 1777, 2317, 1957, 2343, 1699, 2261, 2009, 1958, 2307, 1752, 2408, 2298, 1749, 1672, 2070, 2539, 1742, 2394, 1878, 1894, 2464, 1998, 2155, 2348, 1759, 1973, 2227, 2064, 1813, 2331, 2040, 2288, 1966, 2020, 2067, 1711, 2169, 2207, 1755, 1763, 2351, 2142, 1877, 2286, 2343, 1925, 2222, 2338, 1813, 1985, 1817, 1897, 2209, 2147, 1710, 2126, 2398, 2296, 1992, 2210, 2212, 1870, 2110, 2278, 1758, 2233, 2152, 1698, 1945, 2382, 2096, 1882, 2006, 2284, 1705, 2114, 1894, 2134, 2097, 2296, 1955, 1937, 1979, 1903, 2000, 1888, 1839, 1662, 1903, 2125, 1707, 1958, 2258, 2223, 2137, 2034, 2407, 1719, 1694, 2212, 2195, 1967, 2172, 2318, 2178, 2063, 2338, 1753],
      "WindowCenter": [784.0, 784.0, 786.0, 787.0, 784.0, 784.0, 783.0, 783.0, 783.0, 782.0, 783.0, 784.0, 785.0, 785.0, 784.0, 784.0, 783.0, 784.0, 783.0, 784.0, 784.0, 784.0, 783.0, 784.0, 784.0, 784.0, 784.0, 783.0, 782.0, 783.0, 783.0, 784.0, 783.0, 782.0, 783.0, 783.0, 783.0, 783.0, 783.0, 783.0, 783.0, 783.0, 783.0, 783.0, 782.0, 782.0, 781.0, 782.0, 782.0, 783.0, 784.0, 784.0, 783.0, 783.0, 784.0, 783.0, 784.0, 784.0, 782.0, 782.0, 783.0, 781.0, 782.0, 782.0, 784.0, 783.0, 782.0, 783.0, 784.0, 782.0, 784.0, 783.0, 782.0, 784.0, 783.0, 784.0, 783.0, 783.0, 784.0, 785.0, 783.0, 784.0, 784.0, 783.0, 784.0, 784.0, 784.0, 783.0, 783.0, 782.0, 782.0, 783.0, 782.0, 783.0, 783.0, 782.0, 782.0, 782.0, 783.0, 783.0, 783.0, 782.0, 782.0, 782.0, 782.0, 780.0, 782.0, 783.0, 782.0, 783.0, 781.0, 782.0, 783.0, 782.0, 783.0, 782.0, 783.0, 782.0, 784.0, 783.0, 783.0, 784.0, 783.0, 784.0, 783.0, 782.0, 782.0, 784.0, 784.0, 782.0, 783.0, 782.0, 782.0, 783.0, 781.0, 781.0, 782.0, 780.0, 781.0, 782.0, 782.0, 781.0, 782.0, 781.0, 782.0, 782.0, 782.0, 783.0, 783.0, 784.0, 784.0, 783.0, 782.0, 784.0, 783.0, 782.0, 783.0, 783.0, 782.0, 782.0, 782.0, 781.0, 782.0, 782.0, 783.0, 784.0, 783.0, 782.0, 782.0, 782.0, 782.0, 781.0, 781.0, 782.0, 781.0, 782.0, 782.0, 781.0, 782.0, 782.0, 782.0, 782.0, 783.0, 782.0, 782.0, 782.0, 783.0, 781.0, 782.0, 782.0, 783.0, 783.0, 783.0, 782.0, 782.0, 782.0, 781.0, 781.0, 781.0, 781.0, 781.0, 782.0, 783.0, 781.0, 782.0, 782.0, 783.0, 782.0, 782.0, 782.0, 780.0, 781.0, 782.0, 782.0, 782.0, 782.0, 783.0, 783.0, 782.0, 783.0, 781.0],
      "WindowWidth": [1704.0, 1706.0, 1711.0, 1716.0, 1707.0, 1708.0, 1703.0, 1707.0, 1703.0, 1699.0, 1705.0, 1707.0, 1709.0, 1709.0, 1709.0, 1708.0, 1703.0, 1706.0, 1704.0, 1705.0, 1707.0, 1708.0, 1705.0, 1705.0, 1708.0, 1708.0, 1708.0, 1703.0, 1701.0, 1705.0, 1705.0, 1708.0, 1705.0, 1701.0, 1704.0, 1704.0, 1706.0, 1705.0, 1704.0, 1705.0, 1703.0, 1705.0, 1705.0, 1704.0, 1699.0, 1701.0, 1698.0, 1699.0, 1701.0, 1703.0, 1707.0, 1707.0, 1703.0, 1703.0, 1707.0, 1703.0, 1706.0, 1708.0, 1701.0, 1700.0, 1704.0, 1699.0, 1699.0, 1701.0, 1709.0, 1705.0, 1703.0, 1702.0, 1707.0, 1700.0, 1706.0, 1703.0, 1701.0, 1705.0, 1705.0, 1706.0, 1706.0, 1703.0, 1708.0, 1711.0, 1703.0, 1707.0, 1707.0, 1704.0, 1707.0, 1707.0, 1706.0, 1704.0, 1702.0, 1699.0, 1700.0, 1703.0, 1700.0, 1704.0, 1707.0, 1702.0, 1700.0, 1700.0, 1704.0, 1706.0, 1703.0, 1701.0, 1699.0, 1700.0, 1700.0, 1694.0, 1701.0, 1703.0, 1698.0, 1706.0, 1696.0, 1702.0, 1703.0, 1700.0, 1706.0, 1700.0, 1706.0, 1700.0, 1706.0, 1703.0, 1702.0, 1707.0, 1701.0, 1706.0, 1704.0, 1700.0, 1700.0, 1706.0, 1706.0, 1698.0, 1704.0, 1700.0, 1700.0, 1703.0, 1697.0, 1698.0, 1701.0, 1694.0, 1696.0, 1702.0, 1700.0, 1697.0, 1700.0, 1698.0, 1702.0, 1699.0, 1700.0, 1703.0, 1701.0, 1708.0, 1706.0, 1701.0, 1700.0, 1707.0, 1702.0, 1698.0, 1705.0, 1705.0, 1699.0, 1701.0, 1702.0, 1698.0, 1699.0, 1699.0, 1702.0, 1706.0, 1703.0, 1698.0, 1701.0, 1703.0, 1701.0, 1696.0, 1698.0, 1700.0, 1698.0, 1701.0, 1702.0, 1696.0, 1700.0, 1701.0, 1698.0, 1700.0, 1704.0, 1701.0, 1699.0, 1702.0, 1704.0, 1696.0, 1701.0, 1700.0, 1703.0, 1703.0, 1704.0, 1699.0, 1700.0, 1698.0, 1698.0, 1697.0, 1698.0, 1698.0, 1696.0, 1700.0, 1702.0, 1696.0, 1699.0, 1702.0, 1703.0, 1701.0, 1699.0, 1700.0, 1693.0, 1696.0, 1701.0, 1701.0, 1700.0, 1701.0, 1704.0, 1703.0, 1700.0, 1703.0, 1697.0]
    },
    "slices": {}
  }
}