{
  "AcquisitionMatrixPE": 70,
  "AcquisitionNumber": 1,
  "AcquisitionTime": "15:10:34.917500",
  "BandwidthPerPixelPhaseEncode": 51.02,
  "BaseResolution": 70,
  "BodyPartExamined": "HEAD",
  "CoilCombinationMethod": "Sum of Squares",
  "ConsistencyInfo": "N4_VE11C_LATEST_20160120",
  "ConversionSoftware": "dcm2niix",
  "ConversionSoftwareVersion": "v1.0.20220720",
  "DerivedVendorReportedEchoSpacing": 0.000560004,
  "DeviceSerialNumber": "66061",
  "DwellTime": 3.4e-06,
  "EchoTime": 0.022,
  "EchoTrainLength": 35,
  "EffectiveEchoSpacing": 0.000280002,
  "FlipAngle": 90,
  "HeudiconvVersion": "1.1.1",
  "ImageOrientationPatientDICOM": [0.999998, 0.000885319, -0.00191101, -0.00122174, 0.982935, -0.183949],
  "ImageOrientationText": "Tra>Cor(-10.6)>Sag(-0.1)",
  "ImageType": [
    "ORIGINAL",
    "PRIMARY",
    "M",
    "ND",
    "NORM",
    "MOSAIC"
],
  "ImagingFrequency": 123.254,
  "InPlanePhaseEncodingDirectionDICOM": "COL",
  "InstitutionAddress": "Street StreetNo,City/1c4204/,District,KR,ZIP",
  "InstitutionName": "SKKU",
  "InstitutionalDepartmentName": "Department",
  "MRAcquisitionType": "2D",
  "MagneticFieldStrength": 3,
  "Manufacturer": "Siemens",
  "ManufacturersModelName": "Prisma",
  "MatrixCoilMode": "GRAPPA",
  "Modality": "MR",
  "NonlinearGradientCorrection": false,
  "ParallelReductionFactorInPlane": 2,
  "PartialFourier": 1,
  "PatientPosition": "HFS",
  "PercentPhaseFOV": 100,
  "PercentSampling": 100,
  "PhaseEncodingDirection": "j-",
  "PhaseEncodingSteps": 70,
  "PhaseResolution": 1,
  "PixelBandwidth": 2100,
  "ProcedureStepDescription": "Head^PI:Others",
  "ProtocolName": "BOLD_ep2d_3x3x3_dimension2",
  "PulseSequenceDetails": "%SiemensSeq%\\ep2d_pace",
  "ReceiveCoilActiveElements": "HC1-7",
  "ReceiveCoilName": "HeadNeck_64",
  "ReconMatrixPE": 70,
  "RefLinesPE": 24,
  "RepetitionTime": 2,
  "SAR": 0.138168,
  "ScanOptions": "FS",
  "ScanningSequence": "EP",
  "SequenceName": "*epfid2d1_70",
  "SequenceVariant": "SK",
  "SeriesDescription": "BOLD_ep2d_3x3x3_dimension2",
  "SeriesNumber": 9,
  "ShimSetting": [5051, 3728, 4468, 344, -27, -66, -93, 64],
  "SliceThickness": 3,
  "SliceTiming": [0.99, 0, 1.0375, 0.0475, 1.085, 0.095, 1.1325, 0.1425, 1.1775, 0.1875, 1.225, 0.235, 1.2725, 0.2825, 1.32, 0.33, 1.3675, 0.3775, 1.415, 0.425, 1.4625, 0.4725, 1.5075, 0.5175, 1.555, 0.565, 1.6025, 0.6125, 1.65, 0.66, 1.6975, 0.7075, 1.745, 0.755, 1.7925, 0.8025, 1.8375, 0.8475, 1.885, 0.895, 1.9325, 0.9425],
  "SoftwareVersions": "syngo MR E11",
  "SpacingBetweenSlices": 3,
  "StationName": "AWP66061",
  "TaskName": "dimension",
  "TotalReadoutTime": 0.0193202,
  "TxRefAmp": 238.599,
  "dcmmeta_affine": [
    [-2.999993324279785, -0.0036652260459959507, -0.005146622192114592, 101.82050323486328],
    [-0.0026559566613286734, 2.9488048553466797, -0.5518540143966675, -91.2572250366211],
    [-0.005733018275350332, 0.5518482327461243, 2.9488015174865723, -56.03731155395508],
    [0.0, 0.0, 0.0, 1.0]
],
  "dcmmeta_reorient_transform": [
    [0.0, -1.0, 0.0, 69.0],
    [1.0, 0.0, 0.0, 0.0],
    [0.0, 0.0, -1.0, 41.0],
    [0.0, 0.0, 0.0, 1.0]
],
  "dcmmeta_shape": [70, 70, 42, 437],
  "dcmmeta_slice_dim": 2,
  "dcmmeta_version": 0.6,
  "global": {
    "const": {
      "AcquisitionMatrix": [70, 0, 0, 70],
      "AngioFlag": "N",
      "BitsAllocated": 16,
      "BitsStored": 12,
      "BodyPartExamined": "HEAD",
      "Columns": 490,
      "EchoNumbers": 1,
      "EchoTime": 22.0,
      "EchoTrainLength": 35,
      "FlipAngle": 90.0,
      "HighBit": 11,
      "ImageOrientationPatient": [0.99999778213068, 0.00088531885271, -0.0019110060812, -0.0012217420137, 0.9829349511144, -0.1839494202877],
      "ImagePositionPatient": [-730.58549762314, -709.39106245018, 220.03314885474],
      "ImageType": [
        "ORIGINAL",
        "PRIMARY",
        "M",
        "ND",
        "NORM",
        "MOSAIC"
],
      "ImagedNucleus": "1H",
      "ImagingFrequency": 123.254438,
      "InPlanePhaseEncodingDirection": "COL",
      "MRAcquisitionType": "2D",
      "MagneticFieldStrength": 3.0,
      "Manufacturer": "SIEMENS",
      "ManufacturerModelName": "Prisma",
      "Modality": "MR",
      "NumberOfAverages": 1.0,
      "NumberOfPhaseEncodingSteps": 70,
      "PercentPhaseFieldOfView": 100.0,
      "PercentSampling": 100.0,
      "PerformedProcedureStepStartTime": "134842.644000",
      "PhotometricInterpretation": "MONOCHROME2",
      "PixelBandwidth": 2100.0,
      "PixelRepresentation": 0,
      "PixelSpacing": [3.0, 3.0],
      "ProtocolName": "BOLD_ep2d_3x3x3_dimension2",
      "RepetitionTime": 2000.0,
      "Rows": 490,
      "SAR": 0.13816786914351,
      "SamplesPerPixel": 1,
      "ScanOptions": "FS",
      "ScanningSequence": "EP",
      "SequenceName": "*epfid2d1_70",
      "SequenceVariant": "SK",
      "SeriesDescription": "BOLD_ep2d_3x3x3_dimension2",
      "SeriesNumber": 9,
      "SeriesTime": "151127.416000",
      "SliceLocation": 84.531239981023,
      "SliceThickness": 3.0,
      "SmallestImagePixelValue": 0,
      "SoftwareVersions": "syngo MR E11",
      "SpacingBetweenSlices": 2.9999999942106,
      "SpecificCharacterSet": "ISO_IR 100",
      "StudyID": "1",
      "StudyTime": "134842.591000",
      "TransmitCoilName": "Body",
      "VariableFlipAngleFlag": "N",
      "WindowCenterWidthExplanation": "Algo1",
      "dBdt": 0.0},
    "slices": {}
  },
  "time": {
    "samples": {
      "AcquisitionNumber": [1, 2, 3, 4, 5, 6, 7, 8, 9, 10, 11, 12, 13, 14, 15, 16, 17, 18, 19, 20, 21, 22, 23, 24, 25, 26, 27, 28, 29, 30, 31, 32, 33, 34, 35, 36, 37, 38, 39, 40, 41, 42, 43, 44, 45, 46, 47, 48, 49, 50, 51, 52, 53, 54, 55, 56, 57, 58, 59, 60, 61, 62, 63, 64, 65, 66, 67, 68, 69, 70, 71, 72, 73, 74, 75, 76, 77, 78, 79, 80, 81, 82, 83, 84, 85, 86, 87, 88, 89, 90, 91, 92, 93, 94, 95, 96, 97, 98, 99, 100, 101, 102, 103, 104, 105, 106, 107, 108, 109, 110, 111, 112, 113, 114, 115, 116, 117, 118, 119, 120, 121, 122, 123, 124, 125, 126, 127, 128, 129, 130, 131, 132, 133, 134, 135, 136, 137, 138, 139, 140, 141, 142, 143, 144, 145, 146, 147, 148, 149, 150, 151, 152, 153, 154, 155, 156, 157, 158, 159, 160, 161, 162, 163, 164, 165, 166, 167, 168, 169, 170, 171, 172, 173, 174, 175, 176, 177, 178, 179, 180, 181, 182, 183, 184, 185, 186, 187, 188, 189, 190, 191, 192, 193, 194, 195, 196, 197, 198, 199, 200, 201, 202, 203, 204, 205, 206, 207, 208, 209, 210, 211, 212, 213, 214, 215, 216, 217, 218, 219, 220, 221, 222, 223, 224, 225, 226, 227, 228, 229, 230, 231, 232, 233, 234, 235, 236, 237, 238, 239, 240, 241, 242, 243, 244, 245, 246, 247, 248, 249, 250, 251, 252, 253, 254, 255, 256, 257, 258, 259, 260, 261, 262, 263, 264, 265, 266, 267, 268, 269, 270, 271, 272, 273, 274, 275, 276, 277, 278, 279, 280, 281, 282, 283, 284, 285, 286, 287, 288, 289, 290, 291, 292, 293, 294, 295, 296, 297, 298, 299, 300, 301, 302, 303, 304, 305, 306, 307, 308, 309, 310, 311, 312, 313, 314, 315, 316, 317, 318, 319, 320, 321, 322, 323, 324, 325, 326, 327, 328, 329, 330, 331, 332, 333, 334, 335, 336, 337, 338, 339, 340, 341, 342, 343, 344, 345, 346, 347, 348, 349, 350, 351, 352, 353, 354, 355, 356, 357, 358, 359, 360, 361, 362, 363, 364, 365, 366, 367, 368, 369, 370, 371, 372, 373, 374, 375, 376, 377, 378, 379, 380, 381, 382, 383, 384, 385, 386, 387, 388, 389, 390, 391, 392, 393, 394, 395, 396, 397, 398, 399, 400, 401, 402, 403, 404, 405, 406, 407, 408, 409, 410, 411, 412, 413, 414, 415, 416, 417, 418, 419, 420, 421, 422, 423, 424, 425, 426, 427, 428, 429, 430, 431, 432, 433, 434, 435, 436, 437],
      "AcquisitionTime": ["151034.917500", "151036.917500", "151038.917500", "151040.917500", "151042.917500", "151044.917500", "151046.917500", "151048.917500", "151050.917500", "151052.917500", "151054.917500", "151056.917500", "151058.917500", "151100.917500", "151102.917500", "151104.917500", "151106.917500", "151108.917500", "151110.917500", "151112.917500", "151114.917500", "151116.917500", "151118.917500", "151120.917500", "151122.917500", "151124.917500", "151126.917500", "151128.917500", "151130.917500", "151132.917500", "151134.917500", "151136.917500", "151138.917500", "151140.917500", "151142.917500", "151144.917500", "151146.917500", "151148.917500", "151150.917500", "151152.917500", "151154.917500", "151156.917500", "151158.917500", "151200.917500", "151202.917500", "151204.917500", "151206.917500", "151208.917500", "151210.917500", "151212.917500", "151214.917500", "151216.917500", "151218.917500", "151220.917500", "151222.917500", "151224.917500", "151226.917500", "151228.917500", "151230.917500", "151232.917500", "151234.917500", "151236.917500", "151238.917500", "151240.917500", "151242.917500", "151244.917500", "151246.917500", "151248.917500", "151250.917500", "151252.917500", "151254.917500", "151256.917500", "151258.917500", "151300.917500", "151302.917500", "151304.917500", "151306.917500", "151308.917500", "151310.917500", "151312.917500", "151314.917500", "151316.917500", "151318.917500", "151320.917500", "151322.917500", "151324.917500", "151326.917500", "151328.917500", "151330.917500", "151332.917500", "151334.917500", "151336.917500", "151338.917500", "151340.917500", "151342.917500", "151344.917500", "151346.917500", "151348.917500", "151350.917500", "151352.917500", "151354.917500", "151356.917500", "151358.917500", "151400.917500", "151402.917500", "151404.917500", "151406.917500", "151408.917500", "151410.917500", "151412.917500", "151414.917500", "151416.917500", "151418.917500", "151420.917500", "151422.917500", "151424.917500", "151426.917500", "151428.917500", "151430.917500", "151432.917500", "151434.917500", "151436.917500", "151438.917500", "151440.917500", "151442.917500", "151444.917500", "151446.917500", "151448.917500", "151450.917500", "151452.917500", "151454.917500", "151456.917500", "151458.917500", "151500.917500", "151502.917500", "151504.917500", "151506.917500", "151508.917500", "151510.917500", "151512.917500", "151514.917500", "151516.917500", "151518.917500", "151520.917500", "151522.917500", "151524.917500", "151526.917500", "151528.917500", "151530.917500", "151532.917500", "151534.917500", "151536.917500", "151538.917500", "151540.917500", "151542.917500", "151544.917500", "151546.917500", "151548.917500", "151550.917500", "151552.917500", "151554.917500", "151556.917500", "151558.917500", "151600.917500", "151602.917500", "151604.917500", "151606.917500", "151608.917500", "151610.917500", "151612.917500", "151614.917500", "151616.917500", "151618.917500", "151620.917500", "151622.917500", "151624.917500", "151626.917500", "151628.917500", "151630.917500", "151632.917500", "151634.917500", "151636.917500", "151638.917500", "151640.917500", "151642.917500", "151644.917500", "151646.917500", "151648.917500", "151650.917500", "151652.917500", "151654.917500", "151656.917500", "151658.917500", "151700.917500", "151702.917500", "151704.917500", "151706.917500", "151708.917500", "151710.917500", "151712.917500", "151714.917500", "151716.917500", "151718.917500", "151720.917500", "151722.917500", "151724.917500", "151726.917500", "151728.917500", "151730.917500", "151732.917500", "151734.917500", "151736.917500", "151738.917500", "151740.917500", "151742.917500", "151744.917500", "151746.917500", "151748.917500", "151750.917500", "151752.917500", "151754.917500", "151756.917500", "151758.917500", "151800.917500", "151802.917500", "151804.917500", "151806.917500", "151808.917500", "151810.917500", "151812.917500", "151814.917500", "151816.917500", "151818.917500", "151820.917500", "151822.917500", "151824.917500", "151826.917500", "151828.917500", "151830.917500", "151832.917500", "151834.917500", "151836.917500", "151838.917500", "151840.917500", "151842.917500", "151844.917500", "151846.917500", "151848.917500", "151850.917500", "151852.917500", "151854.917500", "151856.917500", "151858.917500", "151900.917500", "151902.917500", "151904.917500", "151906.917500", "151908.917500", "151910.917500", "151912.917500", "151914.917500", "151916.917500", "151918.917500", "151920.917500", "151922.917500", "151924.917500", "151926.917500", "151928.917500", "151930.917500", "151932.917500", "151934.917500", "151936.917500", "151938.917500", "151940.917500", "151942.917500", "151944.917500", "151946.917500", "151948.917500", "151950.917500", "151952.917500", "151954.917500", "151956.917500", "151958.917500", "152000.917500", "152002.917500", "152004.917500", "152006.917500", "152008.917500", "152010.917500", "152012.917500", "152014.917500", "152016.917500", "152018.917500", "152020.917500", "152022.917500", "152024.917500", "152026.917500", "152028.917500", "152030.917500", "152032.917500", "152034.917500", "152036.917500", "152038.917500", "152040.917500", "152042.917500", "152044.917500", "152046.917500", "152048.917500", "152050.917500", "152052.917500", "152054.917500", "152056.917500", "152058.917500", "152100.917500", "152102.917500", "152104.917500", "152106.917500", "152108.917500", "152110.917500", "152112.917500", "152114.917500", "152116.917500", "152118.917500", "152120.917500", "152122.917500", "152124.917500", "152126.917500", "152128.917500", "152130.917500", "152132.917500", "152134.917500", "152136.917500", "152138.917500", "152140.917500", "152142.917500", "152144.917500", "152146.917500", "152148.917500", "152150.917500", "152152.917500", "152154.917500", "152156.917500", "152158.917500", "152200.917500", "152202.917500", "152204.917500", "152206.917500", "152208.917500", "152210.917500", "152212.917500", "152214.917500", "152216.917500", "152218.917500", "152220.917500", "152222.917500", "152224.917500", "152226.917500", "152228.917500", "152230.917500", "152232.917500", "152234.917500", "152236.917500", "152238.917500", "152240.917500", "152242.917500", "152244.917500", "152246.917500", "152248.917500", "152250.917500", "152252.917500", "152254.917500", "152256.917500", "152258.917500", "152300.917500", "152302.917500", "152304.917500", "152306.917500", "152308.917500", "152310.917500", "152312.917500", "152314.917500", "152316.917500", "152318.917500", "152320.917500", "152322.917500", "152324.917500", "152326.917500", "152328.917500", "152330.917500", "152332.917500", "152334.917500", "152336.917500", "152338.917500", "152340.917500", "152342.917500", "152344.917500", "152346.917500", "152348.917500", "152350.917500", "152352.917500", "152354.917500", "152356.917500", "152358.917500", "152400.917500", "152402.917500", "152404.917500", "152406.917500", "152408.917500", "152410.917500", "152412.917500", "152414.917500", "152416.917500", "152418.917500", "152420.917500", "152422.917500", "152424.917500", "152426.917500", "152428.917500", "152430.917500", "152432.917500", "152434.917500", "152436.917500", "152438.917500", "152440.917500", "152442.917500", "152444.917500", "152446.917500", "152448.917500", "152450.917500", "152452.917500", "152454.917500", "152456.917500", "152458.917500", "152500.917500", "152502.917500", "152504.917500", "152506.917500"],
      "ContentTime": ["151127.419000", "151127.423000", "151127.435000", "151127.438000", "151127.446000", "151127.448000", "151127.451000", "151127.454000", "151127.456000", "151127.459000", "151127.464000", "151127.467000", "151127.470000", "151127.472000", "151127.475000", "151127.485000", "151127.488000", "151127.491000", "151127.493000", "151127.496000", "151127.499000", "151127.501000", "151127.504000", "151127.507000", "151127.509000", "151127.512000", "151207.414000", "151207.417000", "151207.420000", "151207.423000", "151207.425000", "151207.428000", "151207.431000", "151207.433000", "151207.451000", "151207.453000", "151207.456000", "151207.459000", "151207.461000", "151207.464000", "151207.466000", "151207.469000", "151207.472000", "151207.474000", "151207.477000", "151207.480000", "151247.415000", "151247.417000", "151247.420000", "151247.423000", "151247.426000", "151247.428000", "151247.431000", "151247.434000", "151247.436000", "151247.439000", "151247.441000", "151247.444000", "151247.447000", "151247.449000", "151247.452000", "151247.455000", "151247.457000", "151247.460000", "151247.463000", "151247.466000", "151327.415000", "151327.417000", "151327.420000", "151327.423000", "151327.426000", "151327.428000", "151327.431000", "151327.434000", "151327.436000", "151327.439000", "151327.441000", "151327.444000", "151327.447000", "151327.449000", "151327.452000", "151327.455000", "151327.457000", "151327.460000", "151327.472000", "151327.474000", "151407.415000", "151407.418000", "151407.420000", "151407.423000", "151407.426000", "151407.428000", "151407.431000", "151407.434000", "151407.436000", "151407.439000", "151407.442000", "151407.444000", "151407.447000", "151407.450000", "151407.452000", "151407.455000", "151407.458000", "151407.460000", "151407.463000", "151407.466000", "151447.414000", "151447.417000", "151447.420000", "151447.423000", "151447.426000", "151447.428000", "151447.431000", "151447.434000", "151447.437000", "151447.439000", "151447.442000", "151447.445000", "151447.447000", "151447.450000", "151447.453000", "151447.456000", "151447.458000", "151447.461000", "151447.463000", "151447.466000", "151527.415000", "151527.417000", "151527.420000", "151527.423000", "151527.426000", "151527.428000", "151527.431000", "151527.434000", "151527.437000", "151527.439000", "151527.442000", "151527.445000", "151527.447000", "151527.450000", "151527.453000", "151527.455000", "151527.458000", "151527.461000", "151527.463000", "151527.466000", "151607.415000", "151607.417000", "151607.420000", "151607.423000", "151607.426000", "151607.428000", "151607.431000", "151607.434000", "151607.436000", "151607.439000", "151607.442000", "151607.444000", "151607.447000", "151607.450000", "151607.452000", "151607.455000", "151607.458000", "151607.460000", "151607.463000", "151607.466000", "151647.414000", "151647.417000", "151647.420000", "151647.423000", "151647.426000", "151647.428000", "151647.431000", "151647.434000", "151647.436000", "151647.439000", "151647.441000", "151647.444000", "151647.447000", "151647.450000", "151647.452000", "151647.455000", "151647.458000", "151647.460000", "151647.463000", "151647.466000", "151727.415000", "151727.418000", "151727.420000", "151727.423000", "151727.426000", "151727.428000", "151727.431000", "151727.434000", "151727.436000", "151727.439000", "151727.442000", "151727.445000", "151727.447000", "151727.450000", "151727.453000", "151727.470000", "151727.473000", "151727.476000", "151727.479000", "151727.481000", "151807.415000", "151807.426000", "151807.428000", "151807.431000", "151807.434000", "151807.436000", "151807.439000", "151807.442000", "151807.444000", "151807.447000", "151807.450000", "151807.453000", "151807.455000", "151807.458000", "151807.461000", "151807.463000", "151807.466000", "151807.469000", "151807.471000", "151807.474000", "151847.415000", "151847.418000", "151847.420000", "151847.423000", "151847.426000", "151847.428000", "151847.431000", "151847.434000", "151847.436000", "151847.439000", "151847.442000", "151847.444000", "151847.447000", "151847.450000", "151847.452000", "151847.455000", "151847.458000", "151847.461000", "151847.463000", "151847.466000", "151927.415000", "151927.418000", "151927.420000", "151927.423000", "151927.426000", "151927.428000", "151927.431000", "151927.434000", "151927.436000", "151927.452000", "151927.455000", "151927.458000", "151927.460000", "151927.463000", "151927.465000", "151927.468000", "151927.471000", "151927.474000", "151927.476000", "151927.479000", "152007.415000", "152007.418000", "152007.420000", "152007.423000", "152007.426000", "152007.428000", "152007.431000", "152007.434000", "152007.436000", "152007.439000", "152007.442000", "152007.445000", "152007.447000", "152007.450000", "152007.453000", "152007.455000", "152007.458000", "152007.461000", "152007.463000", "152007.466000", "152047.415000", "152047.417000", "152047.420000", "152047.423000", "152047.426000", "152047.428000", "152047.431000", "152047.434000", "152047.436000", "152047.439000", "152047.442000", "152047.445000", "152047.447000", "152047.450000", "152047.452000", "152047.455000", "152047.458000", "152047.461000", "152047.463000", "152047.466000", "152127.415000", "152127.418000", "152127.420000", "152127.423000", "152127.426000", "152127.428000", "152127.431000", "152127.434000", "152127.437000", "152127.439000", "152127.442000", "152127.445000", "152127.447000", "152127.450000", "152127.453000", "152127.455000", "152127.458000", "152127.461000", "152127.463000", "152127.466000", "152207.415000", "152207.417000", "152207.420000", "152207.423000", "152207.426000", "152207.428000", "152207.431000", "152207.434000", "152207.436000", "152207.439000", "152207.442000", "152207.445000", "152207.447000", "152207.450000", "152207.452000", "152207.455000", "152207.458000", "152207.460000", "152207.463000", "152207.466000", "152247.415000", "152247.417000", "152247.420000", "152247.423000", "152247.426000", "152247.428000", "152247.431000", "152247.434000", "152247.436000", "152247.439000", "152247.442000", "152247.444000", "152247.447000", "152247.450000", "152247.452000", "152247.455000", "152247.458000", "152247.461000", "152247.463000", "152247.466000", "152327.415000", "152327.417000", "152327.420000", "152327.423000", "152327.426000", "152327.428000", "152327.431000", "152327.434000", "152327.437000", "152327.439000", "152327.442000", "152327.445000", "152327.447000", "152327.450000", "152327.453000", "152327.455000", "152327.458000", "152327.461000", "152327.463000", "152327.466000", "152407.415000", "152407.418000", "152407.420000", "152407.423000", "152407.426000", "152407.429000", "152407.431000", "152407.434000", "152407.437000", "152407.439000", "152407.442000", "152407.445000", "152407.447000", "152407.450000", "152407.453000", "152407.456000", "152407.458000", "152407.461000", "152407.463000", "152407.466000", "152447.415000", "152447.418000", "152447.420000", "152447.423000", "152447.426000", "152447.428000", "152447.431000", "152447.434000", "152447.437000", "152447.439000", "152447.442000", "152447.445000", "152447.447000", "152447.450000", "152447.452000", "152447.455000", "152447.458000", "152447.460000", "152447.463000", "152447.466000", "152508.518000", "152508.521000", "152508.523000", "152508.526000", "152508.529000", "152508.532000", "152508.534000", "152508.537000", "152508.540000", "152508.543000", "152508.545000"],
      "InstanceCreationTime": ["151127.419000", "151127.423000", "151127.435000", "151127.438000", "151127.446000", "151127.448000", "151127.451000", "151127.454000", "151127.456000", "151127.459000", "151127.464000", "151127.467000", "151127.470000", "151127.472000", "151127.475000", "151127.485000", "151127.488000", "151127.491000", "151127.493000", "151127.496000", "151127.499000", "151127.501000", "151127.504000", "151127.507000", "151127.509000", "151127.512000", "151207.414000", "151207.417000", "151207.420000", "151207.423000", "151207.425000", "151207.428000", "151207.431000", "151207.433000", "151207.451000", "151207.453000", "151207.456000", "151207.459000", "151207.461000", "151207.464000", "151207.466000", "151207.469000", "151207.472000", "151207.474000", "151207.477000", "151207.480000", "151247.415000", "151247.417000", "151247.420000", "151247.423000", "151247.426000", "151247.428000", "151247.431000", "151247.434000", "151247.436000", "151247.439000", "151247.441000", "151247.444000", "151247.447000", "151247.449000", "151247.452000", "151247.455000", "151247.457000", "151247.460000", "151247.463000", "151247.466000", "151327.415000", "151327.417000", "151327.420000", "151327.423000", "151327.426000", "151327.428000", "151327.431000", "151327.434000", "151327.436000", "151327.439000", "151327.441000", "151327.444000", "151327.447000", "151327.449000", "151327.452000", "151327.455000", "151327.457000", "151327.460000", "151327.472000", "151327.474000", "151407.415000", "151407.418000", "151407.420000", "151407.423000", "151407.426000", "151407.428000", "151407.431000", "151407.434000", "151407.436000", "151407.439000", "151407.442000", "151407.444000", "151407.447000", "151407.450000", "151407.452000", "151407.455000", "151407.458000", "151407.460000", "151407.463000", "151407.466000", "151447.414000", "151447.417000", "151447.420000", "151447.423000", "151447.426000", "151447.428000", "151447.431000", "151447.434000", "151447.437000", "151447.439000", "151447.442000", "151447.445000", "151447.447000", "151447.450000", "151447.453000", "151447.456000", "151447.458000", "151447.461000", "151447.463000", "151447.466000", "151527.415000", "151527.417000", "151527.420000", "151527.423000", "151527.426000", "151527.428000", "151527.431000", "151527.434000", "151527.437000", "151527.439000", "151527.442000", "151527.445000", "151527.447000", "151527.450000", "151527.453000", "151527.455000", "151527.458000", "151527.461000", "151527.463000", "151527.466000", "151607.415000", "151607.417000", "151607.420000", "151607.423000", "151607.426000", "151607.428000", "151607.431000", "151607.434000", "151607.436000", "151607.439000", "151607.442000", "151607.444000", "151607.447000", "151607.450000", "151607.452000", "151607.455000", "151607.458000", "151607.460000", "151607.463000", "151607.466000", "151647.414000", "151647.417000", "151647.420000", "151647.423000", "151647.426000", "151647.428000", "151647.431000", "151647.434000", "151647.436000", "151647.439000", "151647.441000", "151647.444000", "151647.447000", "151647.450000", "151647.452000", "151647.455000", "151647.458000", "151647.460000", "151647.463000", "151647.466000", "151727.415000", "151727.418000", "151727.420000", "151727.423000", "151727.426000", "151727.428000", "151727.431000", "151727.434000", "151727.436000", "151727.439000", "151727.442000", "151727.445000", "151727.447000", "151727.450000", "151727.453000", "151727.470000", "151727.473000", "151727.476000", "151727.479000", "151727.481000", "151807.415000", "151807.426000", "151807.428000", "151807.431000", "151807.434000", "151807.436000", "151807.439000", "151807.442000", "151807.444000", "151807.447000", "151807.450000", "151807.453000", "151807.455000", "151807.458000", "151807.461000", "151807.463000", "151807.466000", "151807.469000", "151807.471000", "151807.474000", "151847.415000", "151847.418000", "151847.420000", "151847.423000", "151847.426000", "151847.428000", "151847.431000", "151847.434000", "151847.436000", "151847.439000", "151847.442000", "151847.444000", "151847.447000", "151847.450000", "151847.452000", "151847.455000", "151847.458000", "151847.461000", "151847.463000", "151847.466000", "151927.415000", "151927.418000", "151927.420000", "151927.423000", "151927.426000", "151927.428000", "151927.431000", "151927.434000", "151927.436000", "151927.452000", "151927.455000", "151927.458000", "151927.460000", "151927.463000", "151927.465000", "151927.468000", "151927.471000", "151927.474000", "151927.476000", "151927.479000", "152007.415000", "152007.418000", "152007.420000", "152007.423000", "152007.426000", "152007.428000", "152007.431000", "152007.434000", "152007.436000", "152007.439000", "152007.442000", "152007.445000", "152007.447000", "152007.450000", "152007.453000", "152007.455000", "152007.458000", "152007.461000", "152007.463000", "152007.466000", "152047.415000", "152047.417000", "152047.420000", "152047.423000", "152047.426000", "152047.428000", "152047.431000", "152047.434000", "152047.436000", "152047.439000", "152047.442000", "152047.445000", "152047.447000", "152047.450000", "152047.452000", "152047.455000", "152047.458000", "152047.461000", "152047.463000", "152047.466000", "152127.415000", "152127.418000", "152127.420000", "152127.423000", "152127.426000", "152127.428000", "152127.431000", "152127.434000", "152127.437000", "152127.439000", "152127.442000", "152127.445000", "152127.447000", "152127.450000", "152127.453000", "152127.455000", "152127.458000", "152127.461000", "152127.463000", "152127.466000", "152207.415000", "152207.417000", "152207.420000", "152207.423000", "152207.426000", "152207.428000", "152207.431000", "152207.434000", "152207.436000", "152207.439000", "152207.442000", "152207.445000", "152207.447000", "152207.450000", "152207.452000", "152207.455000", "152207.458000", "152207.460000", "152207.463000", "152207.466000", "152247.415000", "152247.417000", "152247.420000", "152247.423000", "152247.426000", "152247.428000", "152247.431000", "152247.434000", "152247.436000", "152247.439000", "152247.442000", "152247.444000", "152247.447000", "152247.450000", "152247.452000", "152247.455000", "152247.458000", "152247.461000", "152247.463000", "152247.466000", "152327.415000", "152327.417000", "152327.420000", "152327.423000", "152327.426000", "152327.428000", "152327.431000", "152327.434000", "152327.437000", "152327.439000", "152327.442000", "152327.445000", "152327.447000", "152327.450000", "152327.453000", "152327.455000", "152327.458000", "152327.461000", "152327.463000", "152327.466000", "152407.415000", "152407.418000", "152407.420000", "152407.423000", "152407.426000", "152407.429000", "152407.431000", "152407.434000", "152407.437000", "152407.439000", "152407.442000", "152407.445000", "152407.447000", "152407.450000", "152407.453000", "152407.456000", "152407.458000", "152407.461000", "152407.463000", "152407.466000", "152447.415000", "152447.418000", "152447.420000", "152447.423000", "152447.426000", "152447.428000", "152447.431000", "152447.434000", "152447.437000", "152447.439000", "152447.442000", "152447.445000", "152447.447000", "152447.450000", "152447.452000", "152447.455000", "152447.458000", "152447.460000", "152447.463000", "152447.466000", "152508.518000", "152508.521000", "152508.523000", "152508.526000", "152508.529000", "152508.532000", "152508.534000", "152508.537000", "152508.540000", "152508.543000", "152508.545000"],
