{
  "AcquisitionMatrixPE": 70,
  "AcquisitionNumber": 1,
  "AcquisitionTime": "14:42:21.907500",
  "BandwidthPerPixelPhaseEncode": 51.948,
  "BaseResolution": 70,
  "BodyPartExamined": "HEAD",
  "CoilCombinationMethod": "Sum of Squares",
  "ConsistencyInfo": "N4_VE11C_LATEST_20160120",
  "ConversionSoftware": "dcm2niix",
  "ConversionSoftwareVersion": "v1.0.20220720",
  "DerivedVendorReportedEchoSpacing": 0.000550001,
  "DeviceSerialNumber": "66061",
  "DwellTime": 3.3e-06,
  "EchoTime": 0.022,
  "EchoTrainLength": 35,
  "EffectiveEchoSpacing": 0.000275,
  "FlipAngle": 90,
  "HeudiconvVersion": "1.1.1",
  "ImageOrientationPatientDICOM": [0.999993, 0.00183207, 0.0031478, -0.00122175, 0.982934, -0.183956],
  "ImageOrientationText": "Tra>Cor(-10.6)>Sag(0.2)",
  "ImageType": [
    "ORIGINAL",
    "PRIMARY",
    "M",
    "ND",
    "NORM",
    "MOSAIC"
],
  "ImagingFrequency": 123.255,
  "InPlanePhaseEncodingDirectionDICOM": "COL",
  "InstitutionAddress": "Street StreetNo,City/1c4204/,District,KR,ZIP",
  "InstitutionName": "SKKU",
  "InstitutionalDepartmentName": "Department",
  "MRAcquisitionType": "2D",
  "MagneticFieldStrength": 3,
  "Manufacturer": "Siemens",
  "ManufacturersModelName": "Prisma",
  "MatrixCoilMode": "GRAPPA",
  "Modality": "MR",
  "NonlinearGradientCorrection": false,
  "ParallelReductionFactorInPlane": 2,
  "PartialFourier": 1,
  "PatientPosition": "HFS",
  "PercentPhaseFOV": 100,
  "PercentSampling": 100,
  "PhaseEncodingDirection": "j-",
  "PhaseEncodingSteps": 70,
  "PhaseResolution": 1,
  "PixelBandwidth": 2165,
  "ProcedureStepDescription": "Head^PI:Others",
  "ProtocolName": "BOLD_ep2d_3x3x3_response2",
  "PulseSequenceDetails": "%SiemensSeq%\\ep2d_pace",
  "ReceiveCoilActiveElements": "HC1-7",
  "ReceiveCoilName": "HeadNeck_64",
  "ReconMatrixPE": 70,
  "RefLinesPE": 24,
  "RepetitionTime": 2,
  "SAR": 0.108249,
  "ScanOptions": "FS",
  "ScanningSequence": "EP",
  "SequenceName": "*epfid2d1_70",
  "SequenceVariant": "SK",
  "SeriesDescription": "BOLD_ep2d_3x3x3_response2",
  "SeriesNumber": 9,
  "ShimSetting": [5053, 3743, 4452, 370, 1, 90, -3, 48],
  "SliceThickness": 3,
  "SliceTiming": [0.99, 0, 1.0375, 0.0475, 1.085, 0.095, 1.1325, 0.1425, 1.18, 0.19, 1.225, 0.235, 1.2725, 0.2825, 1.32, 0.33, 1.3675, 0.3775, 1.415, 0.425, 1.4625, 0.4725, 1.51, 0.52, 1.555, 0.565, 1.6025, 0.6125, 1.65, 0.66, 1.6975, 0.7075, 1.745, 0.755, 1.7925, 0.8025, 1.84, 0.85, 1.885, 0.895, 1.9325, 0.9425],
  "SoftwareVersions": "syngo MR E11",
  "SpacingBetweenSlices": 3,
  "StationName": "AWP66061",
  "TaskName": "response",
  "TotalReadoutTime": 0.018975,
  "TxRefAmp": 244.048,
  "dcmmeta_affine": [
    [-2.9999802112579346, -0.0036652623675763607, 0.010293286293745041, 105.0434341430664],
    [-0.00549620995298028, 2.948801040649414, -0.5518540740013123, -87.54322814941406],
    [0.009443387389183044, 0.5518692135810852, 2.9487881660461426, -66.81194305419922],
    [0.0, 0.0, 0.0, 1.0]
],
  "dcmmeta_reorient_transform": [
    [0.0, -1.0, 0.0, 69.0],
    [1.0, 0.0, 0.0, 0.0],
    [0.0, 0.0, -1.0, 41.0],
    [0.0, 0.0, 0.0, 1.0]
],
  "dcmmeta_shape": [70, 70, 42, 341],
  "dcmmeta_slice_dim": 2,
  "dcmmeta_version": 0.6,
  "global": {
    "const": {
      "AcquisitionMatrix": [70, 0, 0, 70],
      "AngioFlag": "N",
      "BitsAllocated": 16,
      "BitsStored": 12,
      "BodyPartExamined": "HEAD",
      "Columns": 490,
      "EchoNumbers": 1,
      "EchoTime": 22.0,
      "EchoTrainLength": 35,
      "FlipAngle": 90.0,
      "HighBit": 11,
      "ImageOrientationPatient": [0.99999336742867, 0.00183207002928, 0.00314779575017, -0.0012217541607, 0.9829336427185, -0.1839564114917],
      "ImagePositionPatient": [-734.43866988971, -713.70042002441, 206.07677428147],
      "ImageType": [
        "ORIGINAL",
        "PRIMARY",
        "M",
        "ND",
        "NORM",
        "MOSAIC"
],
      "ImagedNucleus": "1H",
      "ImagingFrequency": 123.254535,
      "InPlanePhaseEncodingDirection": "COL",
      "MRAcquisitionType": "2D",
      "MagneticFieldStrength": 3.0,
      "Manufacturer": "SIEMENS",
      "ManufacturerModelName": "Prisma",
      "Modality": "MR",
      "NumberOfAverages": 1.0,
      "NumberOfPhaseEncodingSteps": 70,
      "PercentPhaseFieldOfView": 100.0,
      "PercentSampling": 100.0,
      "PerformedProcedureStepStartTime": "135825.581000",
      "PhotometricInterpretation": "MONOCHROME2",
      "PixelBandwidth": 2165.0,
      "PixelRepresentation": 0,
      "PixelSpacing": [3.0, 3.0],
      "ProtocolName": "BOLD_ep2d_3x3x3_response2",
      "RepetitionTime": 2000.0,
      "Rows": 490,
      "SAR": 0.10824907433856,
      "SamplesPerPixel": 1,
      "ScanOptions": "FS",
      "ScanningSequence": "EP",
      "SequenceName": "*epfid2d1_70",
      "SequenceVariant": "SK",
      "SeriesDescription": "BOLD_ep2d_3x3x3_response2",
      "SeriesNumber": 9,
      "SeriesTime": "144232.675000",
      "SliceLocation": 73.792688735693,
      "SliceThickness": 3.0,
      "SmallestImagePixelValue": 0,
      "SoftwareVersions": "syngo MR E11",
      "SpacingBetweenSlices": 3.0000000730777,
      "SpecificCharacterSet": "ISO_IR 100",
      "StudyID": "1",
      "StudyTime": "135825.522000",
      "TransmitCoilName": "Body",
      "VariableFlipAngleFlag": "N",
      "WindowCenterWidthExplanation": "Algo1",
      "dBdt": 0.0},
    "slices": {}
  },
  "time": {
    "samples": {
      "AcquisitionNumber": [1, 2, 3, 4, 5, 6, 7, 8, 9, 10, 11, 12, 13, 14, 15, 16, 17, 18, 19, 20, 21, 22, 23, 24, 25, 26, 27, 28, 29, 30, 31, 32, 33, 34, 35, 36, 37, 38, 39, 40, 41, 42, 43, 44, 45, 46, 47, 48, 49, 50, 51, 52, 53, 54, 55, 56, 57, 58, 59, 60, 61, 62, 63, 64, 65, 66, 67, 68, 69, 70, 71, 72, 73, 74, 75, 76, 77, 78, 79, 80, 81, 82, 83, 84, 85, 86, 87, 88, 89, 90, 91, 92, 93, 94, 95, 96, 97, 98, 99, 100, 101, 102, 103, 104, 105, 106, 107, 108, 109, 110, 111, 112, 113, 114, 115, 116, 117, 118, 119, 120, 121, 122, 123, 124, 125, 126, 127, 128, 129, 130, 131, 132, 133, 134, 135, 136, 137, 138, 139, 140, 141, 142, 143, 144, 145, 146, 147, 148, 149, 150, 151, 152, 153, 154, 155, 156, 157, 158, 159, 160, 161, 162, 163, 164, 165, 166, 167, 168, 169, 170, 171, 172, 173, 174, 175, 176, 177, 178, 179, 180, 181, 182, 183, 184, 185, 186, 187, 188, 189, 190, 191, 192, 193, 194, 195, 196, 197, 198, 199, 200, 201, 202, 203, 204, 205, 206, 207, 208, 209, 210, 211, 212, 213, 214, 215, 216, 217, 218, 219, 220, 221, 222, 223, 224, 225, 226, 227, 228, 229, 230, 231, 232, 233, 234, 235, 236, 237, 238, 239, 240, 241, 242, 243, 244, 245, 246, 247, 248, 249, 250, 251, 252, 253, 254, 255, 256, 257, 258, 259, 260, 261, 262, 263, 264, 265, 266, 267, 268, 269, 270, 271, 272, 273, 274, 275, 276, 277, 278, 279, 280, 281, 282, 283, 284, 285, 286, 287, 288, 289, 290, 291, 292, 293, 294, 295, 296, 297, 298, 299, 300, 301, 302, 303, 304, 305, 306, 307, 308, 309, 310, 311, 312, 313, 314, 315, 316, 317, 318, 319, 320, 321, 322, 323, 324, 325, 326, 327, 328, 329, 330, 331, 332, 333, 334, 335, 336, 337, 338, 339, 340, 341],
      "AcquisitionTime": ["144221.907500", "144223.907500", "144225.907500", "144227.907500", "144229.907500", "144231.907500", "144233.907500", "144235.907500", "144237.907500", "144239.907500", "144241.907500", "144243.907500", "144245.907500", "144247.907500", "144249.907500", "144251.907500", "144253.907500", "144255.907500", "144257.907500", "144259.907500", "144301.907500", "144303.907500", "144305.907500", "144307.907500", "144309.907500", "144311.907500", "144313.907500", "144315.907500", "144317.907500", "144319.907500", "144321.907500", "144323.907500", "144325.907500", "144327.907500", "144329.907500", "144331.907500", "144333.907500", "144335.907500", "144337.907500", "144339.907500", "144341.907500", "144343.907500", "144345.907500", "144347.907500", "144349.907500", "144351.907500", "144353.907500", "144355.907500", "144357.907500", "144359.907500", "144401.907500", "144403.907500", "144405.907500", "144407.907500", "144409.907500", "144411.907500", "144413.907500", "144415.907500", "144417.907500", "144419.907500", "144421.907500", "144423.907500", "144425.907500", "144427.907500", "144429.907500", "144431.907500", "144433.907500", "144435.907500", "144437.907500", "144439.907500", "144441.907500", "144443.907500", "144445.907500", "144447.907500", "144449.907500", "144451.907500", "144453.907500", "144455.907500", "144457.907500", "144459.907500", "144501.907500", "144503.907500", "144505.907500", "144507.907500", "144509.907500", "144511.907500", "144513.907500", "144515.907500", "144517.907500", "144519.907500", "144521.907500", "144523.907500", "144525.907500", "144527.907500", "144529.907500", "144531.907500", "144533.907500", "144535.907500", "144537.907500", "144539.907500", "144541.907500", "144543.907500", "144545.907500", "144547.907500", "144549.907500", "144551.907500", "144553.907500", "144555.907500", "144557.907500", "144559.907500", "144601.907500", "144603.907500", "144605.907500", "144607.907500", "144609.907500", "144611.907500", "144613.907500", "144615.907500", "144617.907500", "144619.907500", "144621.907500", "144623.907500", "144625.907500", "144627.907500", "144629.907500", "144631.907500", "144633.907500", "144635.907500", "144637.907500", "144639.907500", "144641.907500", "144643.907500", "144645.907500", "144647.907500", "144649.907500", "144651.907500", "144653.907500", "144655.907500", "144657.907500", "144659.907500", "144701.907500", "144703.907500", "144705.907500", "144707.907500", "144709.907500", "144711.907500", "144713.907500", "144715.907500", "144717.907500", "144719.907500", "144721.907500", "144723.907500", "144725.907500", "144727.907500", "144729.907500", "144731.907500", "144733.907500", "144735.907500", "144737.907500", "144739.907500", "144741.907500", "144743.907500", "144745.907500", "144747.907500", "144749.907500", "144751.907500", "144753.907500", "144755.907500", "144757.907500", "144759.907500", "144801.907500", "144803.907500", "144805.907500", "144807.907500", "144809.907500", "144811.907500", "144813.907500", "144815.907500", "144817.907500", "144819.907500", "144821.907500", "144823.907500", "144825.907500", "144827.907500", "144829.907500", "144831.907500", "144833.907500", "144835.907500", "144837.907500", "144839.907500", "144841.907500", "144843.907500", "144845.907500", "144847.907500", "144849.907500", "144851.907500", "144853.907500", "144855.907500", "144857.907500", "144859.907500", "144901.907500", "144903.907500", "144905.907500", "144907.907500", "144909.907500", "144911.907500", "144913.907500", "144915.907500", "144917.907500", "144919.907500", "144921.907500", "144923.907500", "144925.907500", "144927.907500", "144929.907500", "144931.907500", "144933.907500", "144935.907500", "144937.907500", "144939.907500", "144941.907500", "144943.907500", "144945.907500", "144947.907500", "144949.907500", "144951.907500", "144953.907500", "144955.907500", "144957.907500", "144959.907500", "145001.907500", "145003.907500", "145005.907500", "145007.907500", "145009.907500", "145011.907500", "145013.907500", "145015.907500", "145017.907500", "145019.907500", "145021.907500", "145023.907500", "145025.907500", "145027.907500", "145029.907500", "145031.907500", "145033.907500", "145035.907500", "145037.907500", "145039.907500", "145041.907500", "145043.907500", "145045.907500", "145047.907500", "145049.907500", "145051.907500", "145053.907500", "145055.907500", "145057.907500", "145059.907500", "145101.907500", "145103.907500", "145105.907500", "145107.907500", "145109.907500", "145111.907500", "145113.907500", "145115.907500", "145117.907500", "145119.907500", "145121.907500", "145123.907500", "145125.907500", "145127.907500", "145129.907500", "145131.907500", "145133.907500", "145135.907500", "145137.907500", "145139.907500", "145141.907500", "145143.907500", "145145.907500", "145147.907500", "145149.907500", "145151.907500", "145153.907500", "145155.907500", "145157.907500", "145159.907500", "145201.907500", "145203.907500", "145205.907500", "145207.907500", "145209.907500", "145211.907500", "145213.907500", "145215.907500", "145217.907500", "145219.907500", "145221.907500", "145223.907500", "145225.907500", "145227.907500", "145229.907500", "145231.907500", "145233.907500", "145235.907500", "145237.907500", "145239.907500", "145241.907500", "145243.907500", "145245.907500", "145247.907500", "145249.907500", "145251.907500", "145253.907500", "145255.907500", "145257.907500", "145259.907500", "145301.907500", "145303.907500", "145305.907500", "145307.907500", "145309.907500", "145311.907500", "145313.907500", "145315.907500", "145317.907500", "145319.907500", "145321.907500", "145323.907500", "145325.907500", "145327.907500", "145329.907500", "145331.907500", "145333.907500", "145335.907500", "145337.907500", "145339.907500", "145341.907500"],
      "ContentTime": ["144232.678000", "144232.682000", "144232.684000", "144232.696000", "144232.699000", "144312.674000", "144312.687000", "144312.690000", "144312.693000", "144312.695000", "144312.698000", "144312.701000", "144312.703000", "144312.706000", "144312.715000", "144312.718000", "144312.721000", "144312.723000", "144312.726000", "144312.729000", "144312.731000", "144312.734000", "144312.737000", "144312.739000", "144312.742000", "144352.674000", "144352.677000", "144352.679000", "144352.682000", "144352.685000", "144352.687000", "144352.690000", "144352.693000", "144352.695000", "144352.698000", "144352.701000", "144352.703000", "144352.706000", "144352.709000", "144352.711000", "144352.714000", "144352.717000", "144352.719000", "144352.722000", "144352.725000", "144432.673000", "144432.676000", "144432.678000", "144432.689000", "144432.692000", "144432.709000", "144432.712000", "144432.714000", "144432.717000", "144432.720000", "144432.722000", "144432.725000", "144432.728000", "144432.730000", "144432.733000", "144432.736000", "144432.738000", "144432.741000", "144432.744000", "144432.748000", "144512.674000", "144512.677000", "144512.679000", "144512.682000", "144512.685000", "144512.687000", "144512.690000", "144512.693000", "144512.695000", "144512.698000", "144512.701000", "144512.703000", "144512.706000", "144512.709000", "144512.711000", "144512.714000", "144512.717000", "144512.719000", "144512.722000", "144512.725000", "144552.674000", "144552.677000", "144552.679000", "144552.682000", "144552.685000", "144552.694000", "144552.697000", "144552.699000", "144552.702000", "144552.705000", "144552.707000", "144552.710000", "144552.713000", "144552.716000", "144552.718000", "144552.721000", "144552.723000", "144552.726000", "144552.729000", "144552.732000", "144632.674000", "144632.677000", "144632.680000", "144632.682000", "144632.685000", "144632.688000", "144632.691000", "144632.693000", "144632.704000", "144632.707000", "144632.710000", "144632.712000", "144632.715000", "144632.718000", "144632.721000", "144632.723000", "144632.726000", "144632.729000", "144632.731000", "144632.734000", "144712.674000", "144712.677000", "144712.679000", "144712.682000", "144712.685000", "144712.688000", "144712.690000", "144712.693000", "144712.695000", "144712.698000", "144712.701000", "144712.704000", "144712.706000", "144712.709000", "144712.712000", "144712.714000", "144712.717000", "144712.720000", "144712.722000", "144712.725000", "144752.673000", "144752.677000", "144752.679000", "144752.682000", "144752.685000", "144752.688000", "144752.690000", "144752.693000", "144752.695000", "144752.698000", "144752.701000", "144752.703000", "144752.706000", "144752.709000", "144752.712000", "144752.714000", "144752.717000", "144752.720000", "144752.722000", "144752.725000", "144832.674000", "144832.677000", "144832.680000", "144832.683000", "144832.685000", "144832.688000", "144832.691000", "144832.694000", "144832.696000", "144832.699000", "144832.702000", "144832.704000", "144832.707000", "144832.710000", "144832.712000", "144832.715000", "144832.718000", "144832.720000", "144832.723000", "144832.726000", "144912.674000", "144912.677000", "144912.679000", "144912.682000", "144912.685000", "144912.688000", "144912.690000", "144912.693000", "144912.696000", "144912.698000", "144912.701000", "144912.704000", "144912.706000", "144912.709000", "144912.712000", "144912.714000", "144912.717000", "144912.720000", "144912.722000", "144912.725000", "144952.674000", "144952.677000", "144952.679000", "144952.682000", "144952.685000", "144952.687000", "144952.690000", "144952.693000", "144952.695000", "144952.705000", "144952.708000", "144952.710000", "144952.713000", "144952.716000", "144952.718000", "144952.721000", "144952.724000", "144952.727000", "144952.729000", "144952.732000", "145032.674000", "145032.677000", "145032.679000", "145032.682000", "145032.685000", "145032.688000", "145032.690000", "145032.693000", "145032.695000", "145032.698000", "145032.701000", "145032.704000", "145032.706000", "145032.709000", "145032.712000", "145032.714000", "145032.717000", "145032.720000", "145032.723000", "145032.725000", "145112.674000", "145112.677000", "145112.680000", "145112.682000", "145112.685000", "145112.688000", "145112.690000", "145112.693000", "145112.695000", "145112.698000", "145112.701000", "145112.704000", "145112.706000", "145112.709000", "145112.712000", "145112.724000", "145112.727000", "145112.730000", "145112.733000", "145112.735000", "145132.674000", "145132.677000", "145132.680000", "145132.682000", "145132.685000", "145132.688000", "145132.690000", "145132.693000", "145132.696000", "145132.699000", "145212.674000", "145212.677000", "145212.679000", "145212.682000", "145212.685000", "145212.687000", "145212.690000", "145212.693000", "145212.696000", "145212.698000", "145212.701000", "145212.704000", "145212.706000", "145212.709000", "145212.724000", "145212.727000", "145212.730000", "145212.732000", "145212.735000", "145212.738000", "145252.674000", "145252.677000", "145252.679000", "145252.682000", "145252.685000", "145252.687000", "145252.690000", "145252.693000", "145252.696000", "145252.698000", "145252.701000", "145252.704000", "145252.707000", "145252.709000", "145252.712000", "145252.715000", "145252.717000", "145252.720000", "145252.723000", "145252.725000", "145332.674000", "145332.677000", "145332.679000", "145332.682000", "145332.685000", "145332.687000", "145332.690000", "145332.693000", "145332.696000", "145332.698000", "145332.701000", "145332.704000", "145332.706000", "145332.709000", "145332.712000", "145332.714000", "145332.717000", "145332.720000", "145332.722000", "145332.725000", "145343.195000", "145343.198000", "145343.201000", "145343.204000", "145343.207000", "145343.210000"],
      "DataSetTrailingPadding": [
        "\u0000\u0000\u0000\u0000\u0000\u0000\u0000\u0000\u0000\u0000\u0000\u0000\u0000\u0000\u0000\u0000\u0000\u0000\u0000\u0000\u0000\u0000\u0000\u0000\u0000\u0000\u0000\u0000\u0000\u0000\u0000\u0000\u0000\u0000\u0000\u0000\u0000\u0000\u0000\u0000\u0000\u0000\u0000\u0000\u0000\u0000\u0000\u0000\u0000\u0000\u0000\u0000\u0000\u0000\u0000\u0000\u0000\u0000\u0000\u0000\u0000\u0000\u0000\u0000\u0000\u0000\u0000\u0000\u0000\u0000\u0000\u0000\u0000\u0000\u0000\u0000\u0000\u0000\u0000\u0000\u0000\u0000\u0000\u0000\u0000\u0000\u0000\u0000\u0000\u0000\u0000\u0000\u0000\u0000\u0000\u0000\u0000\u0000\u0000\u0000\u0000\u0000\u0000\u0000\u0000\u0000\u0000\u0000\u0000\u0000\u0000\u0000\u0000\u0000\u0000\u0000\u0000\u0000\u0000\u0000\u0000\u0000\u0000\u0000\u0000\u0000\u0000\u0000\u0000\u0000\u0000\u0000\u0000\u0000\u0000\u0000\u0000\u0000\u0000\u0000\u0000\u0000\u0000\u0000\u0000\u0000\u0000\u0000\u0000\u0000\u0000\u0000\u0000\u0000\u0000\u0000\u0000\u0000\u0000\u0000\u0000\u0000\u0000\u0000\u0000\u0000\u0000\u0000\u0000\u0000\u0000\u0000\u0000\u0000\u0000\u0000\u0000\u0000\u0000\u0000\u0000\u0000\u0000\u0000\u0000\u0000\u0000\u0000\u0000\u0000\u0000\u0000\u0000\u0000\u0000\u0000\u0000\u0000\u0000\u0000\u0000\u0000\u0000\u0000\u0000\u0000\u0000\u0000\u0000\u0000\u0000\u0000\u0000\u0000\u0000\u0000\u0000\u0000\u0000\u0000\u0000\u0000\u0000\u0000\u0000\u0000\u0000\u0000\u0000\u0000\u0000\u0000\u0000\u0000\u0000\u0000\u0000\u0000\u0000\u0000\u0000\u0000\u0000\u0000\u0000\u0000\u0000\u0000\u0000\u0000\u0000\u0000\u0000\u0000\u0000\u0000\u0000\u0000\u0000\u0000\u0000\u0000\u0000\u0000\u0000\u0000\u0000\u0000\u0000\u0000\u0000\u0000\u0000\u0000\u0000\u0000\u0000\u0000\u0000\u0000\u0000\u0000\u0000\u0000\u0000\u0000\u0000\u0000\u0000\u0000\u0000\u0000\u0000\u0000\u0000\u0000\u0000\u0000\u0000\u0000\u0000\u0000\u0000\u0000\u0000\u0000\u0000\u0000\u0000\u0000\u0000\u0000\u0000\u0000\u0000\u0000\u0000\u0000\u0000\u0000\u0000\u0000\u0000\u0000\u0000\u0000\u0000\u0000\u0000\u0000\u0000\u0000\u0000\u0000\u0000\u0000\u0000\u0000\u0000\u0000\u0000\u0000\u0000\u0000\u0000\u0000\u0000\u0000\u0000\u0000\u0000\u0000\u0000\u0000\u0000\u0000\u0000\u0000\u0000\u0000\u0000\u0000\u0000\u0000\u0000\u0000\u0000\u0000\u0000\u0000\u0000\u0000\u0000\u0000\u0000\u0000\u0000\u0000\u0000\u0000\u0000\u0000\u0000\u0000\u0000\u0000\u0000\u0000\u0000\u0000\u0000\u0000\u0000\u0000\u0000\u0000\u0000\u0000\u0000\u0000\u0000\u0000\u0000\u0000\u0000\u0000\u0000\u0000\u0000\u0000\u0000\u0000\u0000\u0000\u0000\u0000\u0000\u0000\u0000\u0000\u0000\u0000\u0000\u0000\u0000\u0000\u0000\u0000\u0000\u0000\u0000\u0000\u0000\u0000\u0000\u0000\u0000\u0000\u0000\u0000\u0000\u0000\u0000\u0000\u0000\u0000\u0000\u0000\u0000\u0000\u0000\u0000\u0000\u0000\u0000\u0000\u0000\u0000\u0000\u0000\u0000\u0000",
        "\u0000\u0000\u0000\u0000\u0000\u0000\u0000\u0000\u0000\u0000\u0000\u0000\u0000\u0000\u0000\u0000\u0000\u0000\u0000\u0000\u0000\u0000\u0000\u0000\u0000\u0000\u0000\u0000\u0000\u0000\u0000\u0000\u0000\u0000\u0000\u0000\u0000\u0000\u0000\u0000\u0000\u0000\u0000\u0000\u0000\u0000\u0000\u0000\u0000\u0000\u0000\u0000\u0000\u0000\u0000\u0000\u0000\u0000\u0000\u0000\u0000\u0000\u0000\u0000\u0000\u0000\u0000\u0000\u0000\u0000\u0000\u0000\u0000\u0000\u0000\u0000\u0000\u0000\u0000\u0000\u0000\u0000\u0000\u0000\u0000\u0000\u0000\u0000\u0000\u0000\u0000\u0000\u0000\u0000\u0000\u0000\u0000\u0000\u0000\u0000\u0000\u0000\u0000\u0000\u0000\u0000\u0000\u0000\u0000\u0000\u0000\u0000\u0000\u0000\u0000\u0000\u0000\u0000\u0000\u0000\u0000\u0000\u0000\u0000\u0000\u0000\u0000\u0000\u0000\u0000\u0000\u0000\u0000\u0000\u0000\u0000\u0000\u0000\u0000\u0000\u0000\u0000\u0000\u0000\u0000\u0000\u0000\u0000\u0000\u0000\u0000\u0000\u0000\u0000\u0000\u0000\u0000\u0000\u0000\u0000\u0000\u0000\u0000\u0000\u0000\u0000\u0000\u0000\u0000\u0000\u0000\u0000\u0000\u0000\u0000\u0000\u0000\u0000\u0000\u0000\u0000\u0000\u0000\u0000\u0000\u0000\u0000\u0000\u0000\u0000\u0000\u0000\u0000\u0000\u0000\u0000\u0000\u0000\u0000\u0000\u0000\u0000\u0000\u0000\u0000\u0000\u0000\u0000\u0000\u0000\u0000\u0000\u0000\u0000\u0000\u0000\u0000\u0000\u0000\u0000\u0000\u0000\u0000\u0000\u0000\u0000\u0000\u0000\u0000\u0000\u0000\u0000\u0000\u0000\u0000\u0000\u0000\u0000\u0000\u0000\u0000\u0000\u0000\u0000\u0000\u0000\u0000\u0000\u0000\u0000\u0000\u0000\u0000\u0000\u0000\u0000\u0000\u0000\u0000\u0000\u0000\u0000\u0000\u0000\u0000\u0000\u0000\u0000\u0000\u0000\u0000\u0000\u0000\u0000\u0000\u0000\u0000\u0000\u0000\u0000\u0000\u0000\u0000\u0000\u0000\u0000\u0000\u0000\u0000\u0000\u0000\u0000\u0000\u0000\u0000\u0000\u0000\u0000\u0000\u0000\u0000\u0000\u0000\u0000\u0000\u0000\u0000\u0000\u0000\u0000\u0000\u0000\u0000\u0000\u0000\u0000\u0000\u0000\u0000\u0000\u0000\u0000\u0000\u0000\u0000\u0000\u0000\u0000\u0000\u0000\u0000\u0000\u0000\u0000\u0000\u0000\u0000\u0000\u0000\u0000\u0000\u0000\u0000\u0000\u0000\u0000\u0000\u0000\u0000\u0000\u0000\u0000\u0000\u0000\u0000\u0000\u0000\u0000\u0000\u0000\u0000\u0000\u0000\u0000\u0000\u0000\u0000\u0000\u0000\u0000\u0000\u0000\u0000\u0000\u0000\u0000\u0000\u0000\u0000\u0000\u0000\u0000\u0000\u0000\u0000\u0000\u0000\u0000\u0000\u0000\u0000\u0000\u0000\u0000\u0000\u0000\u0000\u0000\u0000\u0000\u0000\u0000\u0000\u0000\u0000\u0000\u0000\u0000\u0000\u0000\u0000\u0000\u0000\u0000\u0000\u0000\u0000\u0000\u0000\u0000\u0000\u0000\u0000\u0000\u0000\u0000\u0000\u0000\u0000\u0000\u0000\u0000\u0000\u0000\u0000\u0000\u0000\u0000\u0000\u0000\u0000\u0000\u0000\u0000\u0000\u0000\u0000\u0000\u0000\u0000\u0000\u0000\u0000\u0000\u0000\u0000\u0000\u0000\u0000\u0000\u0000\u0000\u0000\u0000\u0000\u0000",
        "\u0000\u0000\u0000\u0000\u0000\u0000\u0000\u0000\u0000\u0000\u0000\u0000\u0000\u0000\u0000\u0000\u0000\u0000\u0000\u0000\u0000\u0000\u0000\u0000\u0000\u0000\u0000\u0000\u0000\u0000\u0000\u0000\u0000\u0000\u0000\u0000\u0000\u0000\u0000\u0000\u0000\u0000\u0000\u0000\u0000\u0000\u0000\u0000\u0000\u0000\u0000\u0000\u0000\u0000\u0000\u0000\u0000\u0000\u0000\u0000\u0000\u0000\u0000\u0000\u0000\u0000\u0000\u0000\u0000\u0000\u0000\u0000\u0000\u0000\u0000\u0000\u0000\u0000\u0000\u0000\u0000\u0000\u0000\u0000\u0000\u0000\u0000\u0000\u0000\u0000\u0000\u0000\u0000\u0000\u0000\u0000\u0000\u0000\u0000\u0000\u0000\u0000\u0000\u0000\u0000\u0000\u0000\u0000\u0000\u0000\u0000\u0000\u0000\u0000\u0000\u0000\u0000\u0000\u0000\u0000\u0000\u0000\u0000\u0000\u0000\u0000\u0000\u0000\u0000\u0000\u0000\u0000\u0000\u0000\u0000\u0000\u0000\u0000\u0000\u0000\u0000\u0000\u0000\u0000\u0000\u0000\u0000\u0000\u0000\u0000\u0000\u0000\u0000\u0000\u0000\u0000\u0000\u0000\u0000\u0000\u0000\u0000\u0000\u0000\u0000\u0000\u0000\u0000\u0000\u0000\u0000\u0000\u0000\u0000\u0000\u0000\u0000\u0000\u0000\u0000\u0000\u0000\u0000\u0000\u0000\u0000\u0000\u0000\u0000\u0000\u0000\u0000\u0000\u0000\u0000\u0000\u0000\u0000\u0000\u0000\u0000\u0000\u0000\u0000\u0000\u0000\u0000\u0000\u0000\u0000\u0000\u0000\u0000\u0000\u0000\u0000\u0000\u0000\u0000\u0000\u0000\u0000\u0000\u0000\u0000\u0000\u0000\u0000\u0000\u0000\u0000\u0000\u0000\u0000\u0000\u0000\u0000\u0000\u0000\u0000\u0000\u0000\u0000\u0000\u0000\u0000\u0000\u0000\u0000\u0000\u0000\u0000\u0000\u0000\u0000\u0000\u0000\u0000\u0000\u0000\u0000\u0000\u0000\u0000\u0000\u0000\u0000\u0000\u0000\u0000\u0000\u0000\u0000\u0000\u0000\u0000\u0000\u0000\u0000\u0000\u0000\u0000\u0000\u0000\u0000\u0000\u0000\u0000\u0000\u0000\u0000\u0000\u0000\u0000\u0000\u0000\u0000\u0000\u0000\u0000\u0000\u0000\u0000\u0000\u0000\u0000\u0000\u0000\u0000\u0000\u0000\u0000\u0000\u0000\u0000\u0000\u0000\u0000\u0000\u0000\u0000\u0000\u0000\u0000\u0000\u0000\u0000\u0000\u0000\u0000\u0000\u0000\u0000\u0000\u0000\u0000\u0000\u0000\u0000\u0000\u0000\u0000\u0000\u0000\u0000\u0000\u0000\u0000\u0000\u0000\u0000\u0000\u0000\u0000\u0000\u0000\u0000\u0000\u0000\u0000\u0000\u0000\u0000\u0000\u0000\u0000\u0000\u0000\u0000\u0000\u0000\u0000\u0000\u0000\u0000\u0000\u0000\u0000\u0000\u0000\u0000\u0000\u0000\u0000\u0000\u0000\u0000\u0000\u0000\u0000\u0000\u0000\u0000\u0000\u0000\u0000\u0000\u0000\u0000\u0000\u0000\u0000\u0000\u0000\u0000\u0000\u0000\u0000\u0000\u0000\u0000\u0000\u0000\u0000\u0000\u0000\u0000\u0000\u0000\u0000\u0000\u0000\u0000\u0000\u0000\u0000\u0000\u0000\u0000\u0000\u0000\u0000\u0000\u0000\u0000\u0000\u0000\u0000\u0000\u0000\u0000\u0000\u0000\u0000\u0000\u0000\u0000\u0000\u0000\u0000\u0000\u0000\u0000\u0000\u0000\u0000\u0000\u0000\u0000\u0000\u0000\u0000\u0000\u0000\u0000\u0000\u0000\u0000",
        "\u0000\u0000\u0000\u0000\u0000\u0000\u0000\u0000\u0000\u0000\u0000\u0000\u0000\u0000\u0000\u0000\u0000\u0000\u0000\u0000\u0000\u0000\u0000\u0000\u0000\u0000\u0000\u0000\u0000\u0000\u0000\u0000\u0000\u0000\u0000\u0000\u0000\u0000\u0000\u0000\u0000\u0000\u0000\u0000\u0000\u0000\u0000\u0000\u0000\u0000\u0000\u0000\u0000\u0000\u0000\u0000\u0000\u0000\u0000\u0000\u0000\u0000\u0000\u0000\u0000\u0000\u0000\u0000\u0000\u0000\u0000\u0000\u0000\u0000\u0000\u0000\u0000\u0000\u0000\u0000\u0000\u0000\u0000\u0000\u0000\u0000\u0000\u0000\u0000\u0000\u0000\u0000\u0000\u0000\u0000\u0000\u0000\u0000\u0000\u0000\u0000\u0000\u0000\u0000\u0000\u0000\u0000\u0000\u0000\u0000\u0000\u0000\u0000\u0000\u0000\u0000\u0000\u0000\u0000\u0000\u0000\u0000\u0000\u0000\u0000\u0000\u0000\u0000\u0000\u0000\u0000\u0000\u0000\u0000\u0000\u0000\u0000\u0000\u0000\u0000\u0000\u0000\u0000\u0000\u0000\u0000\u0000\u0000\u0000\u0000\u0000\u0000\u0000\u0000\u0000\u0000\u0000\u0000\u0000\u0000\u0000\u0000\u0000\u0000\u0000\u0000\u0000\u0000\u0000\u0000\u0000\u0000\u0000\u0000\u0000\u0000\u0000\u0000\u0000\u0000\u0000\u0000\u0000\u0000\u0000\u0000\u0000\u0000\u0000\u0000\u0000\u0000\u0000\u0000\u0000\u0000\u0000\u0000\u0000\u0000\u0000\u0000\u0000\u0000\u0000\u0000\u0000\u0000\u0000\u0000\u0000\u0000\u0000\u0000\u0000\u0000\u0000\u0000\u0000\u0000\u0000\u0000\u0000\u0000\u0000\u0000\u0000\u0000\u0000\u0000\u0000\u0000\u0000\u0000\u0000\u0000\u0000\u0000\u0000\u0000\u0000\u0000\u0000\u0000\u0000\u0000\u0000\u0000\u0000\u0000\u0000\u0000\u0000\u0000\u0000\u0000\u0000\u0000\u0000\u0000\u0000\u0000\u0000\u0000\u0000\u0000\u0000\u0000\u0000\u0000\u0000\u0000\u0000\u0000\u0000\u0000\u0000\u0000\u0000\u0000\u0000\u0000\u0000\u0000\u0000\u0000\u0000\u0000\u0000\u0000\u0000\u0000\u0000\u0000\u0000\u0000\u0000\u0000\u0000\u0000\u0000\u0000\u0000\u0000\u0000\u0000\u0000\u0000\u0000\u0000\u0000\u0000\u0000\u0000\u0000\u0000\u0000\u0000\u0000\u0000\u0000\u0000\u0000\u0000\u0000\u0000\u0000\u0000\u0000\u0000\u0000\u0000\u0000\u0000\u0000\u0000\u0000\u0000\u0000\u0000\u0000\u0000\u0000\u0000\u0000\u0000\u0000\u0000\u0000\u0000\u0000\u0000\u0000\u0000\u0000\u0000\u0000\u0000\u0000\u0000\u0000\u0000\u0000\u0000\u0000\u0000\u0000\u0000\u0000\u0000\u0000\u0000\u0000\u0000\u0000\u0000\u0000\u0000\u0000\u0000\u0000\u0000\u0000\u0000\u0000\u0000\u0000\u0000\u0000\u0000\u0000\u0000\u0000\u0000\u0000\u0000\u0000\u0000\u0000\u0000\u0000\u0000\u0000\u0000\u0000\u0000\u0000\u0000\u0000\u0000\u0000\u0000\u0000\u0000\u0000\u0000\u0000\u0000\u0000\u0000\u0000\u0000\u0000\u0000\u0000\u0000\u0000\u0000\u0000\u0000\u0000\u0000\u0000\u0000\u0000\u0000\u0000\u0000\u0000\u0000\u0000\u0000\u0000\u0000\u0000\u0000\u0000\u0000\u0000\u0000\u0000\u0000\u0000\u0000\u0000\u0000\u0000\u0000\u0000\u0000\u0000\u0000\u0000\u0000\u0000\u0000\u0000\u0000",
