{
  "AcquisitionMatrixPE": 70,
  "AcquisitionNumber": 1,
  "AcquisitionTime": "14:35:0.885000",
  "BandwidthPerPixelPhaseEncode": 51.948,
  "BaseResolution": 70,
  "BodyPartExamined": "HEAD",
  "CoilCombinationMethod": "Sum of Squares",
  "ConsistencyInfo": "N4_VE11C_LATEST_20160120",
  "ConversionSoftware": "dcm2niix",
  "ConversionSoftwareVersion": "v1.0.20220720",
  "DerivedVendorReportedEchoSpacing": 0.000550001,
  "DeviceSerialNumber": "66061",
  "DwellTime": 3.3e-06,
  "EchoTime": 0.022,
  "EchoTrainLength": 35,
  "EffectiveEchoSpacing": 0.000275,
  "FlipAngle": 90,
  "HeudiconvVersion": "1.1.1",
  "ImageOrientationPatientDICOM": [0.999905, 0.00354008, 0.0133156, -0.00122162, 0.985401, -0.170243],
  "ImageOrientationText": "Tra>Cor(-9.8)>Sag(0.8)",
  "ImageType": [
    "ORIGINAL",
    "PRIMARY",
    "M",
    "ND",
    "NORM",
    "MOSAIC"
],
  "ImagingFrequency": 123.254,
  "InPlanePhaseEncodingDirectionDICOM": "COL",
  "InstitutionAddress": "Street StreetNo,City/1c4204/,District,KR,ZIP",
  "InstitutionName": "SKKU",
  "InstitutionalDepartmentName": "Department",
  "MRAcquisitionType": "2D",
  "MagneticFieldStrength": 3,
  "Manufacturer": "Siemens",
  "ManufacturersModelName": "Prisma",
  "MatrixCoilMode": "GRAPPA",
  "Modality": "MR",
  "NonlinearGradientCorrection": false,
  "ParallelReductionFactorInPlane": 2,
  "PartialFourier": 1,
  "PatientPosition": "HFS",
  "PercentPhaseFOV": 100,
  "PercentSampling": 100,
  "PhaseEncodingDirection": "j-",
  "PhaseEncodingSteps": 70,
  "PhaseResolution": 1,
  "PixelBandwidth": 2165,
  "ProcedureStepDescription": "Head^PI:Others",
  "ProtocolName": "BOLD_ep2d_3x3x3_dimension2",
  "PulseSequenceDetails": "%SiemensSeq%\\ep2d_pace",
  "ReceiveCoilActiveElements": "HC1-7",
  "ReceiveCoilName": "HeadNeck_64",
  "ReconMatrixPE": 70,
  "RefLinesPE": 24,
  "RepetitionTime": 2,
  "SAR": 0.139466,
  "ScanOptions": "FS",
  "ScanningSequence": "EP",
  "SequenceName": "*epfid2d1_70",
  "SequenceVariant": "SK",
  "SeriesDescription": "BOLD_ep2d_3x3x3_dimension2",
  "SeriesNumber": 9,
  "ShimSetting": [5051, 3729, 4407, 439, -42, -2, -48, 48],
  "SliceThickness": 3,
  "SliceTiming": [0.99, 0, 1.0375, 0.0475, 1.085, 0.095, 1.1325, 0.1425, 1.1775, 0.19, 1.225, 0.235, 1.2725, 0.2825, 1.32, 0.33, 1.3675, 0.3775, 1.415, 0.425, 1.4625, 0.4725, 1.5075, 0.52, 1.555, 0.565, 1.6025, 0.6125, 1.65, 0.66, 1.6975, 0.7075, 1.745, 0.755, 1.7925, 0.8025, 1.8375, 0.85, 1.885, 0.895, 1.9325, 0.9425],
  "SoftwareVersions": "syngo MR E11",
  "SpacingBetweenSlices": 3,
  "StationName": "AWP66061",
  "TaskName": "dimension",
  "TotalReadoutTime": 0.018975,
  "TxRefAmp": 242.841,
  "dcmmeta_affine": [
    [-2.9997153282165527, -0.0036648546811193228, 0.04117176681756973, 108.56208801269531],
    [-0.010620241984724998, 2.9562039375305176, -0.5106325149536133, -83.0389404296875],
    [0.039946917444467545, 0.5107297897338867, 2.9559361934661865, -79.2794189453125],
    [0.0, 0.0, 0.0, 1.0]
],
  "dcmmeta_reorient_transform": [
    [0.0, -1.0, 0.0, 69.0],
    [1.0, 0.0, 0.0, 0.0],
    [0.0, 0.0, -1.0, 41.0],
    [0.0, 0.0, 0.0, 1.0]
],
  "dcmmeta_shape": [70, 70, 42, 437],
  "dcmmeta_slice_dim": 2,
  "dcmmeta_version": 0.6,
  "global": {
    "const": {
      "AcquisitionMatrix": [70, 0, 0, 70],
      "AngioFlag": "N",
      "BitsAllocated": 16,
      "BitsStored": 12,
      "BodyPartExamined": "HEAD",
      "Columns": 490,
      "EchoNumbers": 1,
      "EchoTime": 22.0,
      "EchoTrainLength": 35,
      "FlipAngle": 90.0,
      "HighBit": 11,
      "ImageOrientationPatient": [0.99990507628728, 0.00354008074235, 0.01331563904821, -0.0012216182029, 0.98540130722528, -0.1702432711377],
      "ImagePositionPatient": [-739.16783354003, -723.03626995059, 176.01873524498],
      "ImageType": [
        "ORIGINAL",
        "PRIMARY",
        "M",
        "ND",
        "NORM",
        "MOSAIC"
],
      "ImagedNucleus": "1H",
      "ImagingFrequency": 123.254426,
      "InPlanePhaseEncodingDirection": "COL",
      "MRAcquisitionType": "2D",
      "MagneticFieldStrength": 3.0,
      "Manufacturer": "SIEMENS",
      "ManufacturerModelName": "Prisma",
      "Modality": "MR",
      "NumberOfAverages": 1.0,
      "NumberOfPhaseEncodingSteps": 70,
      "PercentPhaseFieldOfView": 100.0,
      "PercentSampling": 100.0,
      "PerformedProcedureStepStartTime": "134811.688000",
      "PhotometricInterpretation": "MONOCHROME2",
      "PixelBandwidth": 2165.0,
      "PixelRepresentation": 0,
      "PixelSpacing": [3.0, 3.0],
      "ProtocolName": "BOLD_ep2d_3x3x3_dimension2",
      "RepetitionTime": 2000.0,
      "Rows": 490,
      "SAR": 0.13946592320794,
      "SamplesPerPixel": 1,
      "ScanOptions": "FS",
      "ScanningSequence": "EP",
      "SequenceName": "*epfid2d1_70",
      "SequenceVariant": "SK",
      "SeriesDescription": "BOLD_ep2d_3x3x3_dimension2",
      "SeriesNumber": 9,
      "SeriesTime": "143544.289000",
      "SliceLocation": 60.509057027987,
      "SliceThickness": 3.0,
      "SmallestImagePixelValue": 0,
      "SoftwareVersions": "syngo MR E11",
      "SpacingBetweenSlices": 2.9999999604107,
      "SpecificCharacterSet": "ISO_IR 100",
      "StudyID": "1",
      "StudyTime": "134811.622000",
      "TransmitCoilName": "Body",
      "VariableFlipAngleFlag": "N",
      "WindowCenterWidthExplanation": "Algo1",
      "dBdt": 0.0},
    "slices": {}
  },
  "time": {
    "samples": {
      "AcquisitionNumber": [1, 2, 3, 4, 5, 6, 7, 8, 9, 10, 11, 12, 13, 14, 15, 16, 17, 18, 19, 20, 21, 22, 23, 24, 25, 26, 27, 28, 29, 30, 31, 32, 33, 34, 35, 36, 37, 38, 39, 40, 41, 42, 43, 44, 45, 46, 47, 48, 49, 50, 51, 52, 53, 54, 55, 56, 57, 58, 59, 60, 61, 62, 63, 64, 65, 66, 67, 68, 69, 70, 71, 72, 73, 74, 75, 76, 77, 78, 79, 80, 81, 82, 83, 84, 85, 86, 87, 88, 89, 90, 91, 92, 93, 94, 95, 96, 97, 98, 99, 100, 101, 102, 103, 104, 105, 106, 107, 108, 109, 110, 111, 112, 113, 114, 115, 116, 117, 118, 119, 120, 121, 122, 123, 124, 125, 126, 127, 128, 129, 130, 131, 132, 133, 134, 135, 136, 137, 138, 139, 140, 141, 142, 143, 144, 145, 146, 147, 148, 149, 150, 151, 152, 153, 154, 155, 156, 157, 158, 159, 160, 161, 162, 163, 164, 165, 166, 167, 168, 169, 170, 171, 172, 173, 174, 175, 176, 177, 178, 179, 180, 181, 182, 183, 184, 185, 186, 187, 188, 189, 190, 191, 192, 193, 194, 195, 196, 197, 198, 199, 200, 201, 202, 203, 204, 205, 206, 207, 208, 209, 210, 211, 212, 213, 214, 215, 216, 217, 218, 219, 220, 221, 222, 223, 224, 225, 226, 227, 228, 229, 230, 231, 232, 233, 234, 235, 236, 237, 238, 239, 240, 241, 242, 243, 244, 245, 246, 247, 248, 249, 250, 251, 252, 253, 254, 255, 256, 257, 258, 259, 260, 261, 262, 263, 264, 265, 266, 267, 268, 269, 270, 271, 272, 273, 274, 275, 276, 277, 278, 279, 280, 281, 282, 283, 284, 285, 286, 287, 288, 289, 290, 291, 292, 293, 294, 295, 296, 297, 298, 299, 300, 301, 302, 303, 304, 305, 306, 307, 308, 309, 310, 311, 312, 313, 314, 315, 316, 317, 318, 319, 320, 321, 322, 323, 324, 325, 326, 327, 328, 329, 330, 331, 332, 333, 334, 335, 336, 337, 338, 339, 340, 341, 342, 343, 344, 345, 346, 347, 348, 349, 350, 351, 352, 353, 354, 355, 356, 357, 358, 359, 360, 361, 362, 363, 364, 365, 366, 367, 368, 369, 370, 371, 372, 373, 374, 375, 376, 377, 378, 379, 380, 381, 382, 383, 384, 385, 386, 387, 388, 389, 390, 391, 392, 393, 394, 395, 396, 397, 398, 399, 400, 401, 402, 403, 404, 405, 406, 407, 408, 409, 410, 411, 412, 413, 414, 415, 416, 417, 418, 419, 420, 421, 422, 423, 424, 425, 426, 427, 428, 429, 430, 431, 432, 433, 434, 435, 436, 437],
      "AcquisitionTime": ["143500.885000", "143502.885000", "143504.885000", "143506.885000", "143508.885000", "143510.885000", "143512.885000", "143514.885000", "143516.885000", "143518.885000", "143520.885000", "143522.885000", "143524.885000", "143526.885000", "143528.885000", "143530.885000", "143532.885000", "143534.885000", "143536.885000", "143538.885000", "143540.885000", "143542.885000", "143544.885000", "143546.885000", "143548.885000", "143550.885000", "143552.885000", "143554.885000", "143556.885000", "143558.885000", "143600.885000", "143602.885000", "143604.885000", "143606.885000", "143608.885000", "143610.885000", "143612.885000", "143614.885000", "143616.885000", "143618.885000", "143620.885000", "143622.885000", "143624.885000", "143626.885000", "143628.885000", "143630.885000", "143632.885000", "143634.885000", "143636.885000", "143638.885000", "143640.885000", "143642.885000", "143644.885000", "143646.885000", "143648.885000", "143650.885000", "143652.885000", "143654.885000", "143656.885000", "143658.885000", "143700.885000", "143702.885000", "143704.885000", "143706.885000", "143708.885000", "143710.885000", "143712.885000", "143714.885000", "143716.885000", "143718.885000", "143720.885000", "143722.885000", "143724.885000", "143726.885000", "143728.885000", "143730.885000", "143732.885000", "143734.885000", "143736.885000", "143738.885000", "143740.885000", "143742.885000", "143744.885000", "143746.885000", "143748.885000", "143750.885000", "143752.885000", "143754.885000", "143756.885000", "143758.885000", "143800.885000", "143802.885000", "143804.885000", "143806.885000", "143808.885000", "143810.885000", "143812.885000", "143814.885000", "143816.885000", "143818.885000", "143820.885000", "143822.885000", "143824.885000", "143826.885000", "143828.885000", "143830.885000", "143832.885000", "143834.885000", "143836.885000", "143838.885000", "143840.885000", "143842.885000", "143844.885000", "143846.885000", "143848.885000", "143850.885000", "143852.885000", "143854.885000", "143856.885000", "143858.885000", "143900.885000", "143902.885000", "143904.885000", "143906.885000", "143908.885000", "143910.885000", "143912.885000", "143914.885000", "143916.885000", "143918.885000", "143920.885000", "143922.885000", "143924.885000", "143926.885000", "143928.885000", "143930.885000", "143932.885000", "143934.885000", "143936.885000", "143938.885000", "143940.885000", "143942.885000", "143944.885000", "143946.885000", "143948.885000", "143950.885000", "143952.885000", "143954.885000", "143956.885000", "143958.885000", "144000.885000", "144002.885000", "144004.885000", "144006.885000", "144008.885000", "144010.885000", "144012.885000", "144014.885000", "144016.885000", "144018.885000", "144020.885000", "144022.885000", "144024.885000", "144026.885000", "144028.885000", "144030.885000", "144032.885000", "144034.885000", "144036.885000", "144038.885000", "144040.885000", "144042.885000", "144044.885000", "144046.885000", "144048.885000", "144050.885000", "144052.885000", "144054.885000", "144056.885000", "144058.885000", "144100.885000", "144102.885000", "144104.885000", "144106.885000", "144108.885000", "144110.885000", "144112.885000", "144114.885000", "144116.885000", "144118.885000", "144120.885000", "144122.885000", "144124.885000", "144126.885000", "144128.885000", "144130.885000", "144132.885000", "144134.885000", "144136.885000", "144138.885000", "144140.885000", "144142.885000", "144144.885000", "144146.885000", "144148.885000", "144150.885000", "144152.885000", "144154.885000", "144156.885000", "144158.885000", "144200.885000", "144202.885000", "144204.885000", "144206.885000", "144208.885000", "144210.885000", "144212.885000", "144214.885000", "144216.885000", "144218.885000", "144220.885000", "144222.885000", "144224.885000", "144226.885000", "144228.885000", "144230.885000", "144232.885000", "144234.885000", "144236.885000", "144238.885000", "144240.885000", "144242.885000", "144244.885000", "144246.885000", "144248.885000", "144250.885000", "144252.885000", "144254.885000", "144256.885000", "144258.885000", "144300.885000", "144302.885000", "144304.885000", "144306.885000", "144308.885000", "144310.885000", "144312.885000", "144314.885000", "144316.885000", "144318.885000", "144320.885000", "144322.885000", "144324.885000", "144326.885000", "144328.885000", "144330.885000", "144332.885000", "144334.885000", "144336.885000", "144338.885000", "144340.885000", "144342.885000", "144344.885000", "144346.885000", "144348.885000", "144350.885000", "144352.885000", "144354.885000", "144356.885000", "144358.885000", "144400.885000", "144402.885000", "144404.885000", "144406.885000", "144408.885000", "144410.885000", "144412.885000", "144414.885000", "144416.885000", "144418.885000", "144420.885000", "144422.885000", "144424.885000", "144426.885000", "144428.885000", "144430.885000", "144432.885000", "144434.885000", "144436.885000", "144438.885000", "144440.885000", "144442.885000", "144444.885000", "144446.885000", "144448.885000", "144450.885000", "144452.885000", "144454.885000", "144456.885000", "144458.885000", "144500.885000", "144502.885000", "144504.885000", "144506.885000", "144508.885000", "144510.885000", "144512.885000", "144514.885000", "144516.885000", "144518.885000", "144520.885000", "144522.885000", "144524.885000", "144526.885000", "144528.885000", "144530.885000", "144532.885000", "144534.885000", "144536.885000", "144538.885000", "144540.885000", "144542.885000", "144544.885000", "144546.885000", "144548.885000", "144550.885000", "144552.885000", "144554.885000", "144556.885000", "144558.885000", "144600.885000", "144602.885000", "144604.885000", "144606.885000", "144608.885000", "144610.885000", "144612.885000", "144614.885000", "144616.885000", "144618.885000", "144620.885000", "144622.885000", "144624.885000", "144626.885000", "144628.885000", "144630.885000", "144632.885000", "144634.885000", "144636.885000", "144638.885000", "144640.885000", "144642.885000", "144644.885000", "144646.885000", "144648.885000", "144650.885000", "144652.885000", "144654.885000", "144656.885000", "144658.885000", "144700.885000", "144702.885000", "144704.885000", "144706.885000", "144708.885000", "144710.885000", "144712.885000", "144714.885000", "144716.885000", "144718.885000", "144720.885000", "144722.885000", "144724.885000", "144726.885000", "144728.885000", "144730.885000", "144732.885000", "144734.885000", "144736.885000", "144738.885000", "144740.885000", "144742.885000", "144744.885000", "144746.885000", "144748.885000", "144750.885000", "144752.885000", "144754.885000", "144756.885000", "144758.885000", "144800.885000", "144802.885000", "144804.885000", "144806.885000", "144808.885000", "144810.885000", "144812.885000", "144814.885000", "144816.885000", "144818.885000", "144820.885000", "144822.885000", "144824.885000", "144826.885000", "144828.885000", "144830.885000", "144832.885000", "144834.885000", "144836.885000", "144838.885000", "144840.885000", "144842.885000", "144844.885000", "144846.885000", "144848.885000", "144850.885000", "144852.885000", "144854.885000", "144856.885000", "144858.885000", "144900.885000", "144902.885000", "144904.885000", "144906.885000", "144908.885000", "144910.885000", "144912.885000", "144914.885000", "144916.885000", "144918.885000", "144920.885000", "144922.885000", "144924.885000", "144926.885000", "144928.885000", "144930.885000", "144932.885000"],
      "ContentTime": ["143544.292000", "143544.296000", "143544.299000", "143544.301000", "143544.304000", "143544.307000", "143544.309000", "143544.312000", "143544.315000", "143544.317000", "143544.320000", "143544.322000", "143544.325000", "143544.328000", "143544.330000", "143544.344000", "143544.352000", "143544.369000", "143544.371000", "143544.374000", "143544.376000", "143624.289000", "143624.292000", "143624.294000", "143624.297000", "143624.300000", "143624.302000", "143624.305000", "143624.307000", "143624.310000", "143624.313000", "143624.315000", "143624.318000", "143624.321000", "143624.323000", "143624.326000", "143624.329000", "143624.331000", "143624.334000", "143624.337000", "143624.339000", "143704.289000", "143704.291000", "143704.305000", "143704.308000", "143704.310000", "143704.313000", "143704.315000", "143704.318000", "143704.321000", "143704.323000", "143704.326000", "143704.329000", "143704.331000", "143704.334000", "143704.337000", "143704.339000", "143704.342000", "143704.345000", "143704.347000", "143704.350000", "143744.288000", "143744.291000", "143744.293000", "143744.296000", "143744.299000", "143744.301000", "143744.304000", "143744.307000", "143744.309000", "143744.312000", "143744.315000", "143744.317000", "143744.320000", "143744.322000", "143744.325000", "143744.328000", "143744.330000", "143744.333000", "143744.336000", "143744.338000", "143824.289000", "143824.292000", "143824.294000", "143824.297000", "143824.300000", "143824.302000", "143824.305000", "143824.308000", "143824.310000", "143824.313000", "143824.315000", "143824.318000", "143824.321000", "143824.323000", "143824.326000", "143824.329000", "143824.331000", "143824.334000", "143824.336000", "143824.339000", "143904.289000", "143904.292000", "143904.294000", "143904.297000", "143904.300000", "143904.302000", "143904.305000", "143904.308000", "143904.310000", "143904.318000", "143904.321000", "143904.323000", "143904.326000", "143904.329000", "143904.331000", "143904.334000", "143904.336000", "143904.339000", "143904.342000", "143904.344000", "143944.289000", "143944.292000", "143944.294000", "143944.297000", "143944.300000", "143944.302000", "143944.305000", "143944.308000", "143944.310000", "143944.313000", "143944.316000", "143944.318000", "143944.321000", "143944.324000", "143944.326000", "143944.329000", "143944.332000", "143944.334000", "143944.337000", "143944.340000", "144024.288000", "144024.291000", "144024.294000", "144024.297000", "144024.299000", "144024.302000", "144024.305000", "144024.307000", "144024.310000", "144024.313000", "144024.315000", "144024.318000", "144024.321000", "144024.323000", "144024.326000", "144024.328000", "144024.331000", "144024.334000", "144024.336000", "144024.339000", "144104.289000", "144104.292000", "144104.294000", "144104.297000", "144104.300000", "144104.303000", "144104.305000", "144104.308000", "144104.311000", "144104.313000", "144104.316000", "144104.319000", "144104.321000", "144104.324000", "144104.327000", "144104.329000", "144104.332000", "144104.335000", "144104.337000", "144104.340000", "144144.289000", "144144.292000", "144144.294000", "144144.297000", "144144.300000", "144144.302000", "144144.305000", "144144.308000", "144144.310000", "144144.313000", "144144.316000", "144144.325000", "144144.327000", "144144.330000", "144144.333000", "144144.335000", "144144.338000", "144144.341000", "144144.343000", "144144.346000", "144224.288000", "144224.291000", "144224.293000", "144224.296000", "144224.299000", "144224.301000", "144224.304000", "144224.307000", "144224.309000", "144224.312000", "144224.315000", "144224.317000", "144224.320000", "144224.323000", "144224.325000", "144224.328000", "144224.330000", "144224.333000", "144224.336000", "144224.338000", "144304.289000", "144304.292000", "144304.294000", "144304.297000", "144304.300000", "144304.302000", "144304.305000", "144304.308000", "144304.310000", "144304.313000", "144304.316000", "144304.318000", "144304.321000", "144304.323000", "144304.326000", "144304.329000", "144304.331000", "144304.334000", "144304.337000", "144304.340000", "144344.289000", "144344.292000", "144344.294000", "144344.297000", "144344.300000", "144344.302000", "144344.305000", "144344.308000", "144344.310000", "144344.313000", "144344.315000", "144344.318000", "144344.321000", "144344.324000", "144344.341000", "144344.344000", "144344.346000", "144344.349000", "144344.352000", "144344.354000", "144424.289000", "144424.292000", "144424.294000", "144424.297000", "144424.300000", "144424.302000", "144424.305000", "144424.308000", "144424.310000", "144424.313000", "144424.316000", "144424.318000", "144424.321000", "144424.324000", "144424.326000", "144424.329000", "144424.332000", "144424.334000", "144424.337000", "144424.340000", "144504.288000", "144504.291000", "144504.293000", "144504.296000", "144504.299000", "144504.301000", "144504.304000", "144504.307000", "144504.309000", "144504.312000", "144504.315000", "144504.317000", "144504.320000", "144504.323000", "144504.325000", "144504.328000", "144504.331000", "144504.333000", "144504.336000", "144504.339000", "144544.289000", "144544.292000", "144544.294000", "144544.297000", "144544.300000", "144544.302000", "144544.305000", "144544.308000", "144544.311000", "144544.313000", "144544.316000", "144544.318000", "144544.321000", "144544.324000", "144544.326000", "144544.329000", "144544.332000", "144544.334000", "144544.337000", "144544.339000", "144624.289000", "144624.292000", "144624.295000", "144624.297000", "144624.300000", "144624.303000", "144624.305000", "144624.308000", "144624.311000", "144624.313000", "144624.316000", "144624.319000", "144624.321000", "144624.324000", "144624.327000", "144624.329000", "144624.332000", "144624.335000", "144624.338000", "144624.340000", "144704.288000", "144704.291000", "144704.293000", "144704.296000", "144704.299000", "144704.301000", "144704.304000", "144704.307000", "144704.309000", "144704.312000", "144704.315000", "144704.317000", "144704.320000", "144704.323000", "144704.325000", "144704.328000", "144704.331000", "144704.333000", "144704.336000", "144704.339000", "144744.289000", "144744.292000", "144744.294000", "144744.297000", "144744.300000", "144744.302000", "144744.305000", "144744.308000", "144744.310000", "144744.313000", "144744.316000", "144744.319000", "144744.321000", "144744.324000", "144744.327000", "144744.329000", "144744.332000", "144744.335000", "144744.337000", "144744.340000", "144824.289000", "144824.292000", "144824.294000", "144824.297000", "144824.300000", "144824.302000", "144824.305000", "144824.308000", "144824.310000", "144824.313000", "144824.316000", "144824.319000", "144824.321000", "144824.324000", "144824.327000", "144824.329000", "144824.332000", "144824.335000", "144824.337000", "144824.340000", "144904.289000", "144904.292000", "144904.294000", "144904.297000", "144904.300000", "144904.302000", "144904.305000", "144904.308000", "144904.310000", "144904.313000", "144904.316000", "144904.318000", "144904.321000", "144904.324000", "144904.326000", "144904.329000", "144904.332000", "144904.334000", "144904.337000", "144904.349000", "144934.587000", "144934.590000", "144934.593000", "144934.596000", "144934.598000", "144934.601000", "144934.604000", "144934.607000", "144934.609000", "144934.612000", "144934.615000", "144934.617000", "144934.622000", "144934.628000", "144934.631000", "144934.634000"],
      "DataSetTrailingPadding": [
        "\u0000\u0000\u0000\u0000\u0000\u0000\u0000\u0000\u0000\u0000\u0000\u0000\u0000\u0000\u0000\u0000\u0000\u0000\u0000\u0000\u0000\u0000\u0000\u0000\u0000\u0000\u0000\u0000\u0000\u0000\u0000\u0000\u0000\u0000\u0000\u0000\u0000\u0000\u0000\u0000\u0000\u0000\u0000\u0000\u0000\u0000\u0000\u0000\u0000\u0000\u0000\u0000\u0000\u0000\u0000\u0000\u0000\u0000\u0000\u0000\u0000\u0000\u0000\u0000\u0000\u0000\u0000\u0000\u0000\u0000\u0000\u0000\u0000\u0000\u0000\u0000\u0000\u0000\u0000\u0000\u0000\u0000\u0000\u0000\u0000\u0000\u0000\u0000\u0000\u0000\u0000\u0000\u0000\u0000\u0000\u0000\u0000\u0000\u0000\u0000\u0000\u0000\u0000\u0000\u0000\u0000\u0000\u0000\u0000\u0000\u0000\u0000\u0000\u0000\u0000\u0000\u0000\u0000\u0000\u0000\u0000\u0000\u0000\u0000\u0000\u0000\u0000\u0000\u0000\u0000\u0000\u0000\u0000\u0000\u0000\u0000\u0000\u0000\u0000\u0000\u0000\u0000\u0000\u0000\u0000\u0000\u0000\u0000\u0000\u0000\u0000\u0000\u0000\u0000\u0000\u0000\u0000\u0000\u0000\u0000\u0000\u0000\u0000\u0000\u0000\u0000\u0000\u0000\u0000\u0000\u0000\u0000\u0000\u0000\u0000\u0000\u0000\u0000\u0000\u0000\u0000\u0000\u0000\u0000\u0000\u0000\u0000\u0000\u0000\u0000\u0000\u0000\u0000\u0000\u0000\u0000\u0000\u0000\u0000\u0000\u0000\u0000\u0000\u0000\u0000\u0000\u0000\u0000\u0000\u0000\u0000\u0000\u0000\u0000\u0000\u0000\u0000\u0000\u0000\u0000\u0000\u0000\u0000\u0000\u0000\u0000\u0000\u0000\u0000\u0000\u0000\u0000\u0000\u0000\u0000\u0000\u0000\u0000\u0000\u0000\u0000\u0000\u0000\u0000\u0000\u0000\u0000\u0000\u0000\u0000\u0000\u0000\u0000\u0000\u0000\u0000\u0000\u0000\u0000\u0000\u0000\u0000\u0000\u0000\u0000\u0000\u0000\u0000\u0000\u0000\u0000\u0000\u0000\u0000\u0000\u0000\u0000\u0000\u0000\u0000\u0000\u0000\u0000\u0000\u0000\u0000\u0000\u0000\u0000\u0000\u0000\u0000\u0000\u0000",
        "\u0000\u0000\u0000\u0000\u0000\u0000\u0000\u0000\u0000\u0000\u0000\u0000\u0000\u0000\u0000\u0000\u0000\u0000\u0000\u0000\u0000\u0000\u0000\u0000\u0000\u0000\u0000\u0000\u0000\u0000\u0000\u0000\u0000\u0000\u0000\u0000\u0000\u0000\u0000\u0000\u0000\u0000\u0000\u0000\u0000\u0000\u0000\u0000\u0000\u0000\u0000\u0000\u0000\u0000\u0000\u0000\u0000\u0000\u0000\u0000\u0000\u0000\u0000\u0000\u0000\u0000\u0000\u0000\u0000\u0000\u0000\u0000\u0000\u0000\u0000\u0000\u0000\u0000\u0000\u0000\u0000\u0000\u0000\u0000\u0000\u0000\u0000\u0000\u0000\u0000\u0000\u0000\u0000\u0000\u0000\u0000\u0000\u0000\u0000\u0000\u0000\u0000\u0000\u0000\u0000\u0000\u0000\u0000\u0000\u0000\u0000\u0000\u0000\u0000\u0000\u0000\u0000\u0000\u0000\u0000\u0000\u0000\u0000\u0000\u0000\u0000\u0000\u0000\u0000\u0000\u0000\u0000\u0000\u0000\u0000\u0000\u0000\u0000\u0000\u0000\u0000\u0000\u0000\u0000\u0000\u0000\u0000\u0000\u0000\u0000\u0000\u0000\u0000\u0000\u0000\u0000\u0000\u0000\u0000\u0000\u0000\u0000\u0000\u0000\u0000\u0000\u0000\u0000\u0000\u0000\u0000\u0000\u0000\u0000\u0000\u0000\u0000\u0000\u0000\u0000\u0000\u0000\u0000\u0000\u0000\u0000\u0000\u0000\u0000\u0000\u0000\u0000\u0000\u0000\u0000\u0000\u0000\u0000\u0000\u0000\u0000\u0000\u0000\u0000\u0000\u0000\u0000\u0000\u0000\u0000\u0000\u0000\u0000\u0000\u0000\u0000\u0000\u0000\u0000\u0000\u0000\u0000\u0000\u0000\u0000\u0000\u0000\u0000\u0000\u0000\u0000\u0000\u0000\u0000\u0000\u0000\u0000\u0000\u0000\u0000\u0000\u0000\u0000\u0000\u0000\u0000\u0000\u0000\u0000\u0000\u0000\u0000\u0000\u0000\u0000\u0000\u0000\u0000\u0000\u0000\u0000\u0000\u0000\u0000\u0000\u0000\u0000\u0000\u0000\u0000\u0000\u0000\u0000\u0000\u0000\u0000\u0000\u0000\u0000\u0000\u0000\u0000\u0000\u0000\u0000\u0000\u0000\u0000\u0000\u0000\u0000\u0000\u0000\u0000\u0000\u0000",
        "\u0000\u0000\u0000\u0000\u0000\u0000\u0000\u0000\u0000\u0000\u0000\u0000\u0000\u0000\u0000\u0000\u0000\u0000\u0000\u0000\u0000\u0000\u0000\u0000\u0000\u0000\u0000\u0000\u0000\u0000\u0000\u0000\u0000\u0000\u0000\u0000\u0000\u0000\u0000\u0000\u0000\u0000\u0000\u0000\u0000\u0000\u0000\u0000\u0000\u0000\u0000\u0000\u0000\u0000\u0000\u0000\u0000\u0000\u0000\u0000\u0000\u0000\u0000\u0000\u0000\u0000\u0000\u0000\u0000\u0000\u0000\u0000\u0000\u0000\u0000\u0000\u0000\u0000\u0000\u0000\u0000\u0000\u0000\u0000\u0000\u0000\u0000\u0000\u0000\u0000\u0000\u0000\u0000\u0000\u0000\u0000\u0000\u0000\u0000\u0000\u0000\u0000\u0000\u0000\u0000\u0000\u0000\u0000\u0000\u0000\u0000\u0000\u0000\u0000\u0000\u0000\u0000\u0000\u0000\u0000\u0000\u0000\u0000\u0000\u0000\u0000\u0000\u0000\u0000\u0000\u0000\u0000\u0000\u0000\u0000\u0000\u0000\u0000\u0000\u0000\u0000\u0000\u0000\u0000\u0000\u0000\u0000\u0000\u0000\u0000\u0000\u0000\u0000\u0000\u0000\u0000\u0000\u0000\u0000\u0000\u0000\u0000\u0000\u0000\u0000\u0000\u0000\u0000\u0000\u0000\u0000\u0000\u0000\u0000\u0000\u0000\u0000\u0000\u0000\u0000\u0000\u0000\u0000\u0000\u0000\u0000\u0000\u0000\u0000\u0000\u0000\u0000\u0000\u0000\u0000\u0000\u0000\u0000\u0000\u0000\u0000\u0000\u0000\u0000\u0000\u0000\u0000\u0000\u0000\u0000\u0000\u0000\u0000\u0000\u0000\u0000\u0000\u0000\u0000\u0000\u0000\u0000\u0000\u0000\u0000\u0000\u0000\u0000\u0000\u0000\u0000\u0000\u0000\u0000\u0000\u0000\u0000\u0000\u0000\u0000\u0000\u0000\u0000\u0000\u0000\u0000\u0000\u0000\u0000\u0000\u0000\u0000\u0000\u0000\u0000\u0000\u0000\u0000\u0000\u0000\u0000\u0000\u0000\u0000\u0000\u0000\u0000\u0000\u0000\u0000\u0000\u0000\u0000\u0000\u0000\u0000\u0000\u0000\u0000\u0000\u0000\u0000\u0000\u0000\u0000\u0000\u0000\u0000\u0000\u0000\u0000\u0000\u0000\u0000\u0000\u0000",
        "\u0000\u0000\u0000\u0000\u0000\u0000\u0000\u0000\u0000\u0000\u0000\u0000\u0000\u0000\u0000\u0000\u0000\u0000\u0000\u0000\u0000\u0000\u0000\u0000\u0000\u0000\u0000\u0000\u0000\u0000\u0000\u0000\u0000\u0000\u0000\u0000\u0000\u0000\u0000\u0000\u0000\u0000\u0000\u0000\u0000\u0000\u0000\u0000\u0000\u0000\u0000\u0000\u0000\u0000\u0000\u0000\u0000\u0000\u0000\u0000\u0000\u0000\u0000\u0000\u0000\u0000\u0000\u0000\u0000\u0000\u0000\u0000\u0000\u0000\u0000\u0000\u0000\u0000\u0000\u0000\u0000\u0000\u0000\u0000\u0000\u0000\u0000\u0000\u0000\u0000\u0000\u0000\u0000\u0000\u0000\u0000\u0000\u0000\u0000\u0000\u0000\u0000\u0000\u0000\u0000\u0000\u0000\u0000\u0000\u0000\u0000\u0000\u0000\u0000\u0000\u0000\u0000\u0000\u0000\u0000\u0000\u0000\u0000\u0000\u0000\u0000\u0000\u0000\u0000\u0000\u0000\u0000\u0000\u0000\u0000\u0000\u0000\u0000\u0000\u0000\u0000\u0000\u0000\u0000\u0000\u0000\u0000\u0000\u0000\u0000\u0000\u0000\u0000\u0000\u0000\u0000\u0000\u0000\u0000\u0000\u0000\u0000\u0000\u0000\u0000\u0000\u0000\u0000\u0000\u0000\u0000\u0000\u0000\u0000\u0000\u0000\u0000\u0000\u0000\u0000\u0000\u0000\u0000\u0000\u0000\u0000\u0000\u0000\u0000\u0000\u0000\u0000\u0000\u0000\u0000\u0000\u0000\u0000\u0000\u0000\u0000\u0000\u0000\u0000\u0000\u0000\u0000\u0000\u0000\u0000\u0000\u0000\u0000\u0000\u0000\u0000\u0000\u0000\u0000\u0000\u0000\u0000\u0000\u0000\u0000\u0000\u0000\u0000\u0000\u0000\u0000\u0000\u0000\u0000\u0000\u0000\u0000\u0000\u0000\u0000\u0000\u0000\u0000\u0000\u0000\u0000\u0000\u0000\u0000\u0000\u0000\u0000\u0000\u0000\u0000\u0000\u0000\u0000\u0000\u0000\u0000\u0000\u0000\u0000\u0000\u0000\u0000\u0000\u0000\u0000\u0000\u0000\u0000\u0000\u0000\u0000\u0000\u0000\u0000\u0000\u0000\u0000\u0000\u0000\u0000\u0000\u0000\u0000\u0000\u0000\u0000\u0000\u0000\u0000\u0000\u0000",
