{
  "AcquisitionMatrixPE": 70,
  "AcquisitionNumber": 1,
  "AcquisitionTime": "15:10:43.477500",
  "BandwidthPerPixelPhaseEncode": 51.948,
  "BaseResolution": 70,
  "BodyPartExamined": "HEAD",
  "CoilCombinationMethod": "Sum of Squares",
  "ConsistencyInfo": "N4_VE11C_LATEST_20160120",
  "ConversionSoftware": "dcm2niix",
  "ConversionSoftwareVersion": "v1.0.20220720",
  "DerivedVendorReportedEchoSpacing": 0.000550001,
  "DeviceSerialNumber": "66061",
  "DwellTime": 3.3e-06,
  "EchoTime": 0.022,
  "EchoTrainLength": 35,
  "EffectiveEchoSpacing": 0.000275,
  "FlipAngle": 90,
  "HeudiconvVersion": "1.1.1",
  "ImageOrientationPatientDICOM": [0.999998, 0.00144591, 0.00153134, -0.00122171, 0.990508, -0.137447],
  "ImageOrientationText": "Tra>Cor(-7.9)>Sag(0.1)",
  "ImageType": [
    "ORIGINAL",
    "PRIMARY",
    "M",
    "ND",
    "NORM",
    "MOSAIC"
],
  "ImagingFrequency": 123.254,
  "InPlanePhaseEncodingDirectionDICOM": "COL",
  "InstitutionAddress": "Street StreetNo,City/1c4204/,District,KR,ZIP",
  "InstitutionName": "SKKU",
  "InstitutionalDepartmentName": "Department",
  "MRAcquisitionType": "2D",
  "MagneticFieldStrength": 3,
  "Manufacturer": "Siemens",
  "ManufacturersModelName": "Prisma",
  "MatrixCoilMode": "GRAPPA",
  "Modality": "MR",
  "NonlinearGradientCorrection": false,
  "ParallelReductionFactorInPlane": 2,
  "PartialFourier": 1,
  "PatientPosition": "HFS",
  "PercentPhaseFOV": 100,
  "PercentSampling": 100,
  "PhaseEncodingDirection": "j-",
  "PhaseEncodingSteps": 70,
  "PhaseResolution": 1,
  "PixelBandwidth": 2165,
  "ProcedureStepDescription": "Head^PI:Others",
  "ProtocolName": "BOLD_ep2d_3x3x3_response1",
  "PulseSequenceDetails": "%SiemensSeq%\\ep2d_pace",
  "ReceiveCoilActiveElements": "HC1-7",
  "ReceiveCoilName": "HeadNeck_64",
  "ReconMatrixPE": 70,
  "RefLinesPE": 24,
  "RepetitionTime": 2,
  "SAR": 0.155691,
  "ScanOptions": "FS",
  "ScanningSequence": "EP",
  "SequenceName": "*epfid2d1_70",
  "SequenceVariant": "SK",
  "SeriesDescription": "BOLD_ep2d_3x3x3_response1",
  "SeriesNumber": 8,
  "ShimSetting": [5042, 3713, 4436, 429, -55, -32, 7, 53],
  "SliceThickness": 3,
  "SliceTiming": [0.99, 0, 1.0375, 0.0475, 1.085, 0.095, 1.13, 0.14, 1.1775, 0.1875, 1.225, 0.235, 1.2725, 0.2825, 1.32, 0.33, 1.3675, 0.3775, 1.415, 0.425, 1.46, 0.47, 1.5075, 0.5175, 1.555, 0.565, 1.6025, 0.6125, 1.65, 0.66, 1.6975, 0.7075, 1.745, 0.755, 1.79, 0.8, 1.8375, 0.8475, 1.885, 0.895, 1.9325, 0.9425],
  "SoftwareVersions": "syngo MR E11",
  "SpacingBetweenSlices": 3,
  "StationName": "AWP66061",
  "TaskName": "response",
  "TotalReadoutTime": 0.018975,
  "TxRefAmp": 250.73,
  "dcmmeta_affine": [
    [-2.999993324279785, -0.0036651173140853643, 0.005146633367985487, 108.17073822021484],
    [-0.004337715916335583, 2.971525192260742, -0.4123338460922241, -87.60228729248047],
    [0.0045940326526761055, 0.412340372800827, 2.9715240001678467, -60.56023025512695],
    [0.0, 0.0, 0.0, 1.0]
],
  "dcmmeta_reorient_transform": [
    [0.0, -1.0, 0.0, 69.0],
    [1.0, 0.0, 0.0, 0.0],
    [0.0, 0.0, -1.0, 41.0],
    [0.0, 0.0, 0.0, 1.0]
],
  "dcmmeta_shape": [70, 70, 42, 341],
  "dcmmeta_slice_dim": 2,
  "dcmmeta_version": 0.6,
  "global": {
    "const": {
      "AcquisitionMatrix": [70, 0, 0, 70],
      "AngioFlag": "N",
      "BitsAllocated": 16,
      "BitsStored": 12,
      "BodyPartExamined": "HEAD",
      "Columns": 490,
      "EchoNumbers": 1,
      "EchoTime": 22.0,
      "EchoTrainLength": 35,
      "FlipAngle": 90.0,
      "HighBit": 11,
      "ImageOrientationPatient": [0.99999778216879, 0.00144590537613, 0.00153134422684, -0.0012217057722, 0.99050839783367, -0.1374467942732],
      "ImagePositionPatient": [-737.35778400087, -725.45847649599, 175.35046961468],
      "ImageType": [
        "ORIGINAL",
        "PRIMARY",
        "M",
        "ND",
        "NORM",
        "MOSAIC"
],
      "ImagedNucleus": "1H",
      "ImagingFrequency": 123.254016,
      "InPlanePhaseEncodingDirection": "COL",
      "MRAcquisitionType": "2D",
      "MagneticFieldStrength": 3.0,
      "Manufacturer": "SIEMENS",
      "ManufacturerModelName": "Prisma",
      "Modality": "MR",
      "NumberOfAverages": 1.0,
      "NumberOfPhaseEncodingSteps": 70,
      "PercentPhaseFieldOfView": 100.0,
      "PercentSampling": 100.0,
      "PerformedProcedureStepStartTime": "143012.413000",
      "PhotometricInterpretation": "MONOCHROME2",
      "PixelBandwidth": 2165.0,
      "PixelRepresentation": 0,
      "PixelSpacing": [3.0, 3.0],
      "ProtocolName": "BOLD_ep2d_3x3x3_response1",
      "RepetitionTime": 2000.0,
      "Rows": 490,
      "SAR": 0.15569113629508,
      "SamplesPerPixel": 1,
      "ScanOptions": "FS",
      "ScanningSequence": "EP",
      "SequenceName": "*epfid2d1_70",
      "SequenceVariant": "SK",
      "SeriesDescription": "BOLD_ep2d_3x3x3_response1",
      "SeriesNumber": 8,
      "SeriesTime": "151140.642000",
      "SliceLocation": 75.240643658495,
      "SliceThickness": 3.0,
      "SmallestImagePixelValue": 0,
      "SoftwareVersions": "syngo MR E11",
      "SpacingBetweenSlices": 3.0000000307792,
      "SpecificCharacterSet": "ISO_IR 100",
      "StudyID": "1",
      "StudyTime": "143012.358000",
      "TransmitCoilName": "Body",
      "VariableFlipAngleFlag": "N",
      "WindowCenterWidthExplanation": "Algo1",
      "dBdt": 0.0},
    "slices": {}
  },
  "time": {
    "samples": {
      "AcquisitionNumber": [1, 2, 3, 4, 5, 6, 7, 8, 9, 10, 11, 12, 13, 14, 15, 16, 17, 18, 19, 20, 21, 22, 23, 24, 25, 26, 27, 28, 29, 30, 31, 32, 33, 34, 35, 36, 37, 38, 39, 40, 41, 42, 43, 44, 45, 46, 47, 48, 49, 50, 51, 52, 53, 54, 55, 56, 57, 58, 59, 60, 61, 62, 63, 64, 65, 66, 67, 68, 69, 70, 71, 72, 73, 74, 75, 76, 77, 78, 79, 80, 81, 82, 83, 84, 85, 86, 87, 88, 89, 90, 91, 92, 93, 94, 95, 96, 97, 98, 99, 100, 101, 102, 103, 104, 105, 106, 107, 108, 109, 110, 111, 112, 113, 114, 115, 116, 117, 118, 119, 120, 121, 122, 123, 124, 125, 126, 127, 128, 129, 130, 131, 132, 133, 134, 135, 136, 137, 138, 139, 140, 141, 142, 143, 144, 145, 146, 147, 148, 149, 150, 151, 152, 153, 154, 155, 156, 157, 158, 159, 160, 161, 162, 163, 164, 165, 166, 167, 168, 169, 170, 171, 172, 173, 174, 175, 176, 177, 178, 179, 180, 181, 182, 183, 184, 185, 186, 187, 188, 189, 190, 191, 192, 193, 194, 195, 196, 197, 198, 199, 200, 201, 202, 203, 204, 205, 206, 207, 208, 209, 210, 211, 212, 213, 214, 215, 216, 217, 218, 219, 220, 221, 222, 223, 224, 225, 226, 227, 228, 229, 230, 231, 232, 233, 234, 235, 236, 237, 238, 239, 240, 241, 242, 243, 244, 245, 246, 247, 248, 249, 250, 251, 252, 253, 254, 255, 256, 257, 258, 259, 260, 261, 262, 263, 264, 265, 266, 267, 268, 269, 270, 271, 272, 273, 274, 275, 276, 277, 278, 279, 280, 281, 282, 283, 284, 285, 286, 287, 288, 289, 290, 291, 292, 293, 294, 295, 296, 297, 298, 299, 300, 301, 302, 303, 304, 305, 306, 307, 308, 309, 310, 311, 312, 313, 314, 315, 316, 317, 318, 319, 320, 321, 322, 323, 324, 325, 326, 327, 328, 329, 330, 331, 332, 333, 334, 335, 336, 337, 338, 339, 340, 341],
      "AcquisitionTime": ["151043.477500", "151045.477500", "151047.477500", "151049.477500", "151051.477500", "151053.477500", "151055.477500", "151057.477500", "151059.477500", "151101.477500", "151103.477500", "151105.477500", "151107.477500", "151109.477500", "151111.477500", "151113.477500", "151115.477500", "151117.477500", "151119.477500", "151121.477500", "151123.477500", "151125.477500", "151127.477500", "151129.477500", "151131.477500", "151133.477500", "151135.477500", "151137.477500", "151139.477500", "151141.477500", "151143.477500", "151145.477500", "151147.477500", "151149.477500", "151151.477500", "151153.477500", "151155.477500", "151157.477500", "151159.477500", "151201.477500", "151203.477500", "151205.477500", "151207.477500", "151209.477500", "151211.477500", "151213.477500", "151215.477500", "151217.477500", "151219.477500", "151221.477500", "151223.477500", "151225.477500", "151227.477500", "151229.477500", "151231.477500", "151233.477500", "151235.477500", "151237.477500", "151239.477500", "151241.477500", "151243.477500", "151245.477500", "151247.477500", "151249.477500", "151251.477500", "151253.477500", "151255.477500", "151257.477500", "151259.477500", "151301.477500", "151303.477500", "151305.477500", "151307.477500", "151309.477500", "151311.477500", "151313.477500", "151315.477500", "151317.477500", "151319.477500", "151321.477500", "151323.477500", "151325.477500", "151327.477500", "151329.477500", "151331.477500", "151333.477500", "151335.477500", "151337.477500", "151339.477500", "151341.477500", "151343.477500", "151345.477500", "151347.477500", "151349.477500", "151351.477500", "151353.477500", "151355.477500", "151357.477500", "151359.477500", "151401.477500", "151403.477500", "151405.477500", "151407.477500", "151409.477500", "151411.477500", "151413.477500", "151415.477500", "151417.477500", "151419.477500", "151421.477500", "151423.477500", "151425.477500", "151427.477500", "151429.477500", "151431.477500", "151433.477500", "151435.477500", "151437.477500", "151439.477500", "151441.477500", "151443.477500", "151445.477500", "151447.477500", "151449.477500", "151451.477500", "151453.477500", "151455.477500", "151457.477500", "151459.477500", "151501.477500", "151503.477500", "151505.477500", "151507.477500", "151509.477500", "151511.477500", "151513.477500", "151515.477500", "151517.477500", "151519.477500", "151521.477500", "151523.477500", "151525.477500", "151527.477500", "151529.477500", "151531.477500", "151533.477500", "151535.477500", "151537.477500", "151539.477500", "151541.477500", "151543.477500", "151545.477500", "151547.477500", "151549.477500", "151551.477500", "151553.477500", "151555.477500", "151557.477500", "151559.477500", "151601.477500", "151603.477500", "151605.477500", "151607.477500", "151609.477500", "151611.477500", "151613.477500", "151615.477500", "151617.477500", "151619.477500", "151621.477500", "151623.477500", "151625.477500", "151627.477500", "151629.477500", "151631.477500", "151633.477500", "151635.477500", "151637.477500", "151639.477500", "151641.477500", "151643.477500", "151645.477500", "151647.477500", "151649.477500", "151651.477500", "151653.477500", "151655.477500", "151657.477500", "151659.477500", "151701.477500", "151703.477500", "151705.477500", "151707.477500", "151709.477500", "151711.477500", "151713.477500", "151715.477500", "151717.477500", "151719.477500", "151721.477500", "151723.477500", "151725.477500", "151727.477500", "151729.477500", "151731.477500", "151733.477500", "151735.477500", "151737.477500", "151739.477500", "151741.477500", "151743.477500", "151745.477500", "151747.477500", "151749.477500", "151751.477500", "151753.477500", "151755.477500", "151757.477500", "151759.477500", "151801.477500", "151803.477500", "151805.477500", "151807.477500", "151809.477500", "151811.477500", "151813.477500", "151815.477500", "151817.477500", "151819.477500", "151821.477500", "151823.477500", "151825.477500", "151827.477500", "151829.477500", "151831.477500", "151833.477500", "151835.477500", "151837.477500", "151839.477500", "151841.477500", "151843.477500", "151845.477500", "151847.477500", "151849.477500", "151851.477500", "151853.477500", "151855.477500", "151857.477500", "151859.477500", "151901.477500", "151903.477500", "151905.477500", "151907.477500", "151909.477500", "151911.477500", "151913.477500", "151915.477500", "151917.477500", "151919.477500", "151921.477500", "151923.477500", "151925.477500", "151927.477500", "151929.477500", "151931.477500", "151933.477500", "151935.477500", "151937.477500", "151939.477500", "151941.477500", "151943.477500", "151945.477500", "151947.477500", "151949.477500", "151951.477500", "151953.477500", "151955.477500", "151957.477500", "151959.477500", "152001.477500", "152003.477500", "152005.477500", "152007.477500", "152009.477500", "152011.477500", "152013.477500", "152015.477500", "152017.477500", "152019.477500", "152021.477500", "152023.477500", "152025.477500", "152027.477500", "152029.477500", "152031.477500", "152033.477500", "152035.477500", "152037.477500", "152039.477500", "152041.477500", "152043.477500", "152045.477500", "152047.477500", "152049.477500", "152051.477500", "152053.477500", "152055.477500", "152057.477500", "152059.477500", "152101.477500", "152103.477500", "152105.477500", "152107.477500", "152109.477500", "152111.477500", "152113.477500", "152115.477500", "152117.477500", "152119.477500", "152121.477500", "152123.477500", "152125.477500", "152127.477500", "152129.477500", "152131.477500", "152133.477500", "152135.477500", "152137.477500", "152139.477500", "152141.477500", "152143.477500", "152145.477500", "152147.477500", "152149.477500", "152151.477500", "152153.477500", "152155.477500", "152157.477500", "152159.477500", "152201.477500", "152203.477500"],
      "ContentTime": ["151140.646000", "151140.649000", "151140.652000", "151140.660000", "151140.663000", "151140.665000", "151140.668000", "151140.671000", "151140.673000", "151140.676000", "151140.679000", "151140.681000", "151140.684000", "151140.686000", "151140.689000", "151140.692000", "151140.694000", "151140.697000", "151140.700000", "151140.702000", "151140.705000", "151140.708000", "151140.710000", "151140.713000", "151140.716000", "151140.718000", "151140.721000", "151140.723000", "151140.726000", "151220.641000", "151220.644000", "151220.646000", "151220.649000", "151220.652000", "151220.654000", "151220.657000", "151220.660000", "151220.662000", "151220.665000", "151220.667000", "151220.674000", "151220.677000", "151220.680000", "151220.682000", "151220.685000", "151220.692000", "151220.695000", "151220.698000", "151220.700000", "151300.641000", "151300.644000", "151300.646000", "151300.649000", "151300.652000", "151300.654000", "151300.665000", "151300.667000", "151300.670000", "151300.673000", "151300.675000", "151300.678000", "151300.681000", "151300.683000", "151300.694000", "151300.697000", "151300.700000", "151300.702000", "151300.705000", "151300.707000", "151340.641000", "151340.644000", "151340.656000", "151340.659000", "151340.662000", "151340.664000", "151340.667000", "151340.669000", "151340.672000", "151340.675000", "151340.677000", "151340.680000", "151340.683000", "151340.685000", "151340.697000", "151340.700000", "151340.703000", "151340.705000", "151340.708000", "151340.711000", "151420.641000", "151420.644000", "151420.646000", "151420.649000", "151420.652000", "151420.654000", "151420.657000", "151420.660000", "151420.662000", "151420.665000", "151420.668000", "151420.670000", "151420.673000", "151420.675000", "151420.678000", "151420.681000", "151420.683000", "151420.686000", "151420.689000", "151420.691000", "151500.640000", "151500.643000", "151500.645000", "151500.648000", "151500.651000", "151500.653000", "151500.656000", "151500.658000", "151500.661000", "151500.664000", "151500.667000", "151500.669000", "151500.672000", "151500.674000", "151500.677000", "151500.680000", "151500.682000", "151500.685000", "151500.688000", "151500.690000", "151540.641000", "151540.644000", "151540.646000", "151540.649000", "151540.652000", "151540.655000", "151540.657000", "151540.675000", "151540.678000", "151540.681000", "151540.683000", "151540.686000", "151540.689000", "151540.691000", "151540.694000", "151540.696000", "151540.699000", "151540.702000", "151540.704000", "151540.707000", "151620.641000", "151620.644000", "151620.646000", "151620.649000", "151620.652000", "151620.654000", "151620.657000", "151620.660000", "151620.663000", "151620.665000", "151620.668000", "151620.671000", "151620.673000", "151620.676000", "151620.679000", "151620.681000", "151620.684000", "151620.687000", "151620.689000", "151620.692000", "151700.641000", "151700.644000", "151700.646000", "151700.649000", "151700.652000", "151700.654000", "151700.657000", "151700.660000", "151700.663000", "151700.665000", "151700.668000", "151700.670000", "151700.673000", "151700.676000", "151700.678000", "151700.681000", "151700.684000", "151700.686000", "151700.689000", "151700.692000", "151740.641000", "151740.644000", "151740.646000", "151740.649000", "151740.652000", "151740.655000", "151740.657000", "151740.660000", "151740.663000", "151740.665000", "151740.668000", "151740.671000", "151740.673000", "151740.676000", "151740.679000", "151740.681000", "151740.684000", "151740.687000", "151740.689000", "151740.692000", "151820.641000", "151820.644000", "151820.646000", "151820.649000", "151820.652000", "151820.654000", "151820.657000", "151820.660000", "151820.663000", "151820.665000", "151820.668000", "151820.670000", "151820.673000", "151820.676000", "151820.678000", "151820.681000", "151820.684000", "151820.687000", "151820.689000", "151820.692000", "151900.641000", "151900.644000", "151900.646000", "151900.649000", "151900.652000", "151900.654000", "151900.657000", "151900.660000", "151900.662000", "151900.665000", "151900.668000", "151900.671000", "151900.673000", "151900.676000", "151900.679000", "151900.681000", "151900.684000", "151900.686000", "151900.689000", "151900.692000", "151940.640000", "151940.643000", "151940.646000", "151940.648000", "151940.651000", "151940.654000", "151940.657000", "151940.659000", "151940.662000", "151940.665000", "151940.667000", "151940.670000", "151940.673000", "151940.675000", "151940.678000", "151940.681000", "151940.683000", "151940.686000", "151940.689000", "151940.691000", "152020.641000", "152020.644000", "152020.646000", "152020.649000", "152020.652000", "152020.655000", "152020.657000", "152020.660000", "152020.663000", "152020.665000", "152020.668000", "152020.671000", "152020.673000", "152020.676000", "152020.679000", "152020.681000", "152020.684000", "152020.687000", "152020.689000", "152020.692000", "152100.641000", "152100.644000", "152100.647000", "152100.649000", "152100.652000", "152100.654000", "152100.657000", "152100.660000", "152100.662000", "152100.665000", "152100.668000", "152100.670000", "152100.673000", "152100.676000", "152100.679000", "152100.681000", "152100.684000", "152100.687000", "152100.689000", "152100.692000", "152140.640000", "152140.643000", "152140.645000", "152140.648000", "152140.651000", "152140.654000", "152140.656000", "152140.659000", "152140.662000", "152140.664000", "152140.667000", "152140.670000", "152140.672000", "152140.675000", "152140.678000", "152140.680000", "152140.683000", "152140.686000", "152140.688000", "152140.691000", "152204.539000", "152204.542000", "152204.545000", "152204.547000", "152204.550000", "152204.553000", "152204.555000", "152204.558000", "152204.561000", "152204.563000", "152204.566000", "152204.569000"],
      "DataSetTrailingPadding": [
        "\u0000\u0000\u0000\u0000\u0000\u0000\u0000\u0000\u0000\u0000\u0000\u0000\u0000\u0000\u0000\u0000\u0000\u0000\u0000\u0000\u0000\u0000\u0000\u0000\u0000\u0000\u0000\u0000\u0000\u0000\u0000\u0000\u0000\u0000\u0000\u0000\u0000\u0000\u0000\u0000\u0000\u0000\u0000\u0000\u0000\u0000\u0000\u0000\u0000\u0000\u0000\u0000\u0000\u0000\u0000\u0000\u0000\u0000\u0000\u0000\u0000\u0000\u0000\u0000\u0000\u0000",
        "\u0000\u0000\u0000\u0000\u0000\u0000\u0000\u0000\u0000\u0000\u0000\u0000\u0000\u0000\u0000\u0000\u0000\u0000\u0000\u0000\u0000\u0000\u0000\u0000\u0000\u0000\u0000\u0000\u0000\u0000\u0000\u0000\u0000\u0000\u0000\u0000\u0000\u0000\u0000\u0000\u0000\u0000\u0000\u0000\u0000\u0000\u0000\u0000\u0000\u0000\u0000\u0000\u0000\u0000\u0000\u0000\u0000\u0000\u0000\u0000\u0000\u0000\u0000\u0000\u0000\u0000",
        "\u0000\u0000\u0000\u0000\u0000\u0000\u0000\u0000\u0000\u0000\u0000\u0000\u0000\u0000\u0000\u0000\u0000\u0000\u0000\u0000\u0000\u0000\u0000\u0000\u0000\u0000\u0000\u0000\u0000\u0000\u0000\u0000\u0000\u0000\u0000\u0000\u0000\u0000\u0000\u0000\u0000\u0000\u0000\u0000\u0000\u0000\u0000\u0000\u0000\u0000\u0000\u0000\u0000\u0000\u0000\u0000\u0000\u0000\u0000\u0000\u0000\u0000\u0000\u0000\u0000\u0000\u0000\u0000",
        "\u0000\u0000\u0000\u0000\u0000\u0000\u0000\u0000\u0000\u0000\u0000\u0000\u0000\u0000\u0000\u0000\u0000\u0000\u0000\u0000\u0000\u0000\u0000\u0000\u0000\u0000\u0000\u0000\u0000\u0000\u0000\u0000\u0000\u0000\u0000\u0000\u0000\u0000\u0000\u0000\u0000\u0000\u0000\u0000\u0000\u0000\u0000\u0000\u0000\u0000\u0000\u0000\u0000\u0000\u0000\u0000\u0000\u0000\u0000\u0000\u0000\u0000\u0000\u0000\u0000\u0000\u0000\u0000",
        "\u0000\u0000\u0000\u0000\u0000\u0000\u0000\u0000\u0000\u0000\u0000\u0000\u0000\u0000\u0000\u0000\u0000\u0000\u0000\u0000\u0000\u0000\u0000\u0000\u0000\u0000\u0000\u0000\u0000\u0000\u0000\u0000\u0000\u0000\u0000\u0000\u0000\u0000\u0000\u0000\u0000\u0000\u0000\u0000\u0000\u0000\u0000\u0000\u0000\u0000\u0000\u0000\u0000\u0000\u0000\u0000\u0000\u0000\u0000\u0000\u0000\u0000\u0000\u0000\u0000\u0000",
        "\u0000\u0000\u0000\u0000\u0000\u0000\u0000\u0000\u0000\u0000\u0000\u0000\u0000\u0000\u0000\u0000\u0000\u0000\u0000\u0000\u0000\u0000\u0000\u0000\u0000\u0000\u0000\u0000\u0000\u0000\u0000\u0000\u0000\u0000\u0000\u0000\u0000\u0000\u0000\u0000\u0000\u0000\u0000\u0000\u0000\u0000\u0000\u0000\u0000\u0000\u0000\u0000\u0000\u0000\u0000\u0000\u0000\u0000\u0000\u0000\u0000\u0000\u0000\u0000",
        "\u0000\u0000\u0000\u0000\u0000\u0000\u0000\u0000\u0000\u0000\u0000\u0000\u0000\u0000\u0000\u0000\u0000\u0000\u0000\u0000\u0000\u0000\u0000\u0000\u0000\u0000\u0000\u0000\u0000\u0000\u0000\u0000\u0000\u0000\u0000\u0000\u0000\u0000\u0000\u0000\u0000\u0000\u0000\u0000\u0000\u0000\u0000\u0000\u0000\u0000\u0000\u0000\u0000\u0000\u0000\u0000\u0000\u0000\u0000\u0000\u0000\u0000\u0000\u0000\u0000\u0000",
        "\u0000\u0000\u0000\u0000\u0000\u0000\u0000\u0000\u0000\u0000\u0000\u0000\u0000\u0000\u0000\u0000\u0000\u0000\u0000\u0000\u0000\u0000\u0000\u0000\u0000\u0000\u0000\u0000\u0000\u0000\u0000\u0000\u0000\u0000\u0000\u0000\u0000\u0000\u0000\u0000\u0000\u0000\u0000\u0000\u0000\u0000\u0000\u0000\u0000\u0000\u0000\u0000\u0000\u0000\u0000\u0000\u0000\u0000\u0000\u0000\u0000\u0000\u0000\u0000\u0000\u0000",
        "\u0000\u0000\u0000\u0000\u0000\u0000\u0000\u0000\u0000\u0000\u0000\u0000\u0000\u0000\u0000\u0000\u0000\u0000\u0000\u0000\u0000\u0000\u0000\u0000\u0000\u0000\u0000\u0000\u0000\u0000\u0000\u0000\u0000\u0000\u0000\u0000\u0000\u0000\u0000\u0000\u0000\u0000\u0000\u0000\u0000\u0000\u0000\u0000\u0000\u0000\u0000\u0000\u0000\u0000\u0000\u0000\u0000\u0000\u0000\u0000\u0000\u0000\u0000\u0000\u0000\u0000",
        "\u0000\u0000\u0000\u0000\u0000\u0000\u0000\u0000\u0000\u0000\u0000\u0000\u0000\u0000\u0000\u0000\u0000\u0000\u0000\u0000\u0000\u0000\u0000\u0000\u0000\u0000\u0000\u0000\u0000\u0000\u0000\u0000\u0000\u0000\u0000\u0000\u0000\u0000\u0000\u0000\u0000\u0000\u0000\u0000\u0000\u0000\u0000\u0000\u0000\u0000\u0000\u0000\u0000\u0000\u0000\u0000\u0000\u0000\u0000\u0000\u0000\u0000\u0000\u0000\u0000\u0000",
        "\u0000\u0000\u0000\u0000\u0000\u0000\u0000\u0000\u0000\u0000\u0000\u0000\u0000\u0000\u0000\u0000\u0000\u0000\u0000\u0000\u0000\u0000\u0000\u0000\u0000\u0000\u0000\u0000\u0000\u0000\u0000\u0000\u0000\u0000\u0000\u0000\u0000\u0000\u0000\u0000\u0000\u0000\u0000\u0000\u0000\u0000\u0000\u0000\u0000\u0000\u0000\u0000\u0000\u0000\u0000\u0000\u0000\u0000\u0000\u0000\u0000\u0000\u0000\u0000\u0000\u0000",
        "\u0000\u0000\u0000\u0000\u0000\u0000\u0000\u0000\u0000\u0000\u0000\u0000\u0000\u0000\u0000\u0000\u0000\u0000\u0000\u0000\u0000\u0000\u0000\u0000\u0000\u0000\u0000\u0000\u0000\u0000\u0000\u0000\u0000\u0000\u0000\u0000\u0000\u0000\u0000\u0000\u0000\u0000\u0000\u0000\u0000\u0000\u0000\u0000\u0000\u0000\u0000\u0000\u0000\u0000\u0000\u0000\u0000\u0000\u0000\u0000\u0000\u0000\u0000\u0000",
        "\u0000\u0000\u0000\u0000\u0000\u0000\u0000\u0000\u0000\u0000\u0000\u0000\u0000\u0000\u0000\u0000\u0000\u0000\u0000\u0000\u0000\u0000\u0000\u0000\u0000\u0000\u0000\u0000\u0000\u0000\u0000\u0000\u0000\u0000\u0000\u0000\u0000\u0000\u0000\u0000\u0000\u0000\u0000\u0000\u0000\u0000\u0000\u0000\u0000\u0000\u0000\u0000\u0000\u0000\u0000\u0000\u0000\u0000\u0000\u0000\u0000\u0000\u0000\u0000\u0000\u0000",
        "\u0000\u0000\u0000\u0000\u0000\u0000\u0000\u0000\u0000\u0000\u0000\u0000\u0000\u0000\u0000\u0000\u0000\u0000\u0000\u0000\u0000\u0000\u0000\u0000\u0000\u0000\u0000\u0000\u0000\u0000\u0000\u0000\u0000\u0000\u0000\u0000\u0000\u0000\u0000\u0000\u0000\u0000\u0000\u0000\u0000\u0000\u0000\u0000\u0000\u0000\u0000\u0000\u0000\u0000\u0000\u0000\u0000\u0000\u0000\u0000\u0000\u0000\u0000\u0000\u0000\u0000",
        "\u0000\u0000\u0000\u0000\u0000\u0000\u0000\u0000\u0000\u0000\u0000\u0000\u0000\u0000\u0000\u0000\u0000\u0000\u0000\u0000\u0000\u0000\u0000\u0000\u0000\u0000\u0000\u0000\u0000\u0000\u0000\u0000\u0000\u0000\u0000\u0000\u0000\u0000\u0000\u0000\u0000\u0000\u0000\u0000\u0000\u0000\u0000\u0000\u0000\u0000\u0000\u0000\u0000\u0000\u0000\u0000\u0000\u0000\u0000\u0000\u0000\u0000\u0000\u0000\u0000\u0000",
        "\u0000\u0000\u0000\u0000\u0000\u0000\u0000\u0000\u0000\u0000\u0000\u0000\u0000\u0000\u0000\u0000\u0000\u0000\u0000\u0000\u0000\u0000\u0000\u0000\u0000\u0000\u0000\u0000\u0000\u0000\u0000\u0000\u0000\u0000\u0000\u0000\u0000\u0000\u0000\u0000\u0000\u0000\u0000\u0000\u0000\u0000\u0000\u0000\u0000\u0000\u0000\u0000\u0000\u0000\u0000\u0000\u0000\u0000\u0000\u0000\u0000\u0000\u0000\u0000\u0000\u0000",
        "\u0000\u0000\u0000\u0000\u0000\u0000\u0000\u0000\u0000\u0000\u0000\u0000\u0000\u0000\u0000\u0000\u0000\u0000\u0000\u0000\u0000\u0000\u0000\u0000\u0000\u0000\u0000\u0000\u0000\u0000\u0000\u0000\u0000\u0000\u0000\u0000\u0000\u0000\u0000\u0000\u0000\u0000\u0000\u0000\u0000\u0000\u0000\u0000\u0000\u0000\u0000\u0000\u0000\u0000\u0000\u0000\u0000\u0000\u0000\u0000\u0000\u0000\u0000\u0000",
        "\u0000\u0000\u0000\u0000\u0000\u0000\u0000\u0000\u0000\u0000\u0000\u0000\u0000\u0000\u0000\u0000\u0000\u0000\u0000\u0000\u0000\u0000\u0000\u0000\u0000\u0000\u0000\u0000\u0000\u0000\u0000\u0000\u0000\u0000\u0000\u0000\u0000\u0000\u0000\u0000\u0000\u0000\u0000\u0000\u0000\u0000\u0000\u0000\u0000\u0000\u0000\u0000\u0000\u0000\u0000\u0000\u0000\u0000\u0000\u0000\u0000\u0000\u0000\u0000\u0000\u0000",
        "\u0000\u0000\u0000\u0000\u0000\u0000\u0000\u0000\u0000\u0000\u0000\u0000\u0000\u0000\u0000\u0000\u0000\u0000\u0000\u0000\u0000\u0000\u0000\u0000\u0000\u0000\u0000\u0000\u0000\u0000\u0000\u0000\u0000\u0000\u0000\u0000\u0000\u0000\u0000\u0000\u0000\u0000\u0000\u0000\u0000\u0000\u0000\u0000\u0000\u0000\u0000\u0000\u0000\u0000\u0000\u0000\u0000\u0000\u0000\u0000\u0000\u0000\u0000\u0000\u0000\u0000",
        "\u0000\u0000\u0000\u0000\u0000\u0000\u0000\u0000\u0000\u0000\u0000\u0000\u0000\u0000\u0000\u0000\u0000\u0000\u0000\u0000\u0000\u0000\u0000\u0000\u0000\u0000\u0000\u0000\u0000\u0000\u0000\u0000\u0000\u0000\u0000\u0000\u0000\u0000\u0000\u0000\u0000\u0000\u0000\u0000\u0000\u0000\u0000\u0000\u0000\u0000\u0000\u0000\u0000\u0000\u0000\u0000\u0000\u0000\u0000\u0000\u0000\u0000\u0000\u0000\u0000\u0000",
        "\u0000\u0000\u0000\u0000\u0000\u0000\u0000\u0000\u0000\u0000\u0000\u0000\u0000\u0000\u0000\u0000\u0000\u0000\u0000\u0000\u0000\u0000\u0000\u0000\u0000\u0000\u0000\u0000\u0000\u0000\u0000\u0000\u0000\u0000\u0000\u0000\u0000\u0000\u0000\u0000\u0000\u0000\u0000\u0000\u0000\u0000\u0000\u0000\u0000\u0000\u0000\u0000\u0000\u0000\u0000\u0000\u0000\u0000\u0000\u0000\u0000\u0000\u0000\u0000\u0000\u0000",
        "\u0000\u0000\u0000\u0000\u0000\u0000\u0000\u0000\u0000\u0000\u0000\u0000\u0000\u0000\u0000\u0000\u0000\u0000\u0000\u0000\u0000\u0000\u0000\u0000\u0000\u0000\u0000\u0000\u0000\u0000\u0000\u0000\u0000\u0000\u0000\u0000\u0000\u0000\u0000\u0000\u0000\u0000\u0000\u0000\u0000\u0000\u0000\u0000\u0000\u0000\u0000\u0000\u0000\u0000\u0000\u0000\u0000\u0000\u0000\u0000\u0000\u0000\u0000\u0000\u0000\u0000",
        "\u0000\u0000\u0000\u0000\u0000\u0000\u0000\u0000\u0000\u0000\u0000\u0000\u0000\u0000\u0000\u0000\u0000\u0000\u0000\u0000\u0000\u0000\u0000\u0000\u0000\u0000\u0000\u0000\u0000\u0000\u0000\u0000\u0000\u0000\u0000\u0000\u0000\u0000\u0000\u0000\u0000\u0000\u0000\u0000\u0000\u0000\u0000\u0000\u0000\u0000\u0000\u0000\u0000\u0000\u0000\u0000\u0000\u0000\u0000\u0000\u0000\u0000\u0000\u0000\u0000\u0000",
        "\u0000\u0000\u0000\u0000\u0000\u0000\u0000\u0000\u0000\u0000\u0000\u0000\u0000\u0000\u0000\u0000\u0000\u0000\u0000\u0000\u0000\u0000\u0000\u0000\u0000\u0000\u0000\u0000\u0000\u0000\u0000\u0000\u0000\u0000\u0000\u0000\u0000\u0000\u0000\u0000\u0000\u0000\u0000\u0000\u0000\u0000\u0000\u0000\u0000\u0000\u0000\u0000\u0000\u0000\u0000\u0000\u0000\u0000\u0000\u0000\u0000\u0000\u0000\u0000\u0000\u0000",
        "\u0000\u0000\u0000\u0000\u0000\u0000\u0000\u0000\u0000\u0000\u0000\u0000\u0000\u0000\u0000\u0000\u0000\u0000\u0000\u0000\u0000\u0000\u0000\u0000\u0000\u0000\u0000\u0000\u0000\u0000\u0000\u0000\u0000\u0000\u0000\u0000\u0000\u0000\u0000\u0000\u0000\u0000\u0000\u0000\u0000\u0000\u0000\u0000\u0000\u0000\u0000\u0000\u0000\u0000\u0000\u0000\u0000\u0000\u0000\u0000\u0000\u0000\u0000\u0000\u0000\u0000",
        "\u0000\u0000\u0000\u0000\u0000\u0000\u0000\u0000\u0000\u0000\u0000\u0000\u0000\u0000\u0000\u0000\u0000\u0000\u0000\u0000\u0000\u0000\u0000\u0000\u0000\u0000\u0000\u0000\u0000\u0000\u0000\u0000\u0000\u0000\u0000\u0000\u0000\u0000\u0000\u0000\u0000\u0000\u0000\u0000\u0000\u0000\u0000\u0000\u0000\u0000\u0000\u0000\u0000\u0000\u0000\u0000\u0000\u0000\u0000\u0000\u0000\u0000\u0000\u0000\u0000\u0000",
        "\u0000\u0000\u0000\u0000\u0000\u0000\u0000\u0000\u0000\u0000\u0000\u0000\u0000\u0000\u0000\u0000\u0000\u0000\u0000\u0000\u0000\u0000\u0000\u0000\u0000\u0000\u0000\u0000\u0000\u0000\u0000\u0000\u0000\u0000\u0000\u0000\u0000\u0000\u0000\u0000\u0000\u0000\u0000\u0000\u0000\u0000\u0000\u0000\u0000\u0000\u0000\u0000\u0000\u0000\u0000\u0000\u0000\u0000\u0000\u0000\u0000\u0000\u0000\u0000\u0000\u0000",
