{
  "AcquisitionMatrixPE": 70,
  "AcquisitionNumber": 1,
  "AcquisitionTime": "14:11:40.055000",
  "BandwidthPerPixelPhaseEncode": 51.948,
  "BaseResolution": 70,
  "BodyPartExamined": "HEAD",
  "CoilCombinationMethod": "Sum of Squares",
  "ConsistencyInfo": "N4_VE11C_LATEST_20160120",
  "ConversionSoftware": "dcm2niix",
  "ConversionSoftwareVersion": "v1.0.20220720",
  "DerivedVendorReportedEchoSpacing": 0.000550001,
  "DeviceSerialNumber": "66061",
  "DwellTime": 3.3e-06,
  "EchoTime": 0.022,
  "EchoTrainLength": 35,
  "EffectiveEchoSpacing": 0.000275,
  "FlipAngle": 90,
  "HeudiconvVersion": "1.1.1",
  "ImageOrientationPatientDICOM": [0.999995, 0.000554669, -0.00324203, -0.00122174, 0.977796, -0.209553],
  "ImageOrientationText": "Tra>Cor(-12.1)>Sag(-0.2)",
  "ImageType": [
    "ORIGINAL",
    "PRIMARY",
    "M",
    "ND",
    "NORM",
    "MOSAIC"
],
  "ImagingFrequency": 123.254,
  "InPlanePhaseEncodingDirectionDICOM": "COL",
  "InstitutionAddress": "Street StreetNo,City/1c4204/,District,KR,ZIP",
  "InstitutionName": "SKKU",
  "InstitutionalDepartmentName": "Department",
  "MRAcquisitionType": "2D",
  "MagneticFieldStrength": 3,
  "Manufacturer": "Siemens",
  "ManufacturersModelName": "Prisma",
  "MatrixCoilMode": "GRAPPA",
  "Modality": "MR",
  "NonlinearGradientCorrection": false,
  "ParallelReductionFactorInPlane": 2,
  "PartialFourier": 1,
  "PatientPosition": "HFS",
  "PercentPhaseFOV": 100,
  "PercentSampling": 100,
  "PhaseEncodingDirection": "j-",
  "PhaseEncodingSteps": 70,
  "PhaseResolution": 1,
  "PixelBandwidth": 2165,
  "ProcedureStepDescription": "Head^PI:Others",
  "ProtocolName": "BOLD_ep2d_3x3x3_response1",
  "PulseSequenceDetails": "%SiemensSeq%\\ep2d_pace",
  "ReceiveCoilActiveElements": "HC1-7",
  "ReceiveCoilName": "HeadNeck_64",
  "ReconMatrixPE": 70,
  "RefLinesPE": 24,
  "RepetitionTime": 2,
  "SAR": 0.147223,
  "ScanOptions": "FS",
  "ScanningSequence": "EP",
  "SequenceName": "*epfid2d1_70",
  "SequenceVariant": "SK",
  "SeriesDescription": "BOLD_ep2d_3x3x3_response1",
  "SeriesNumber": 4,
  "ShimSetting": [5051, 3733, 4437, 417, 19, 21, 79, 75],
  "SliceThickness": 3,
  "SliceTiming": [0.99, 0, 1.0375, 0.0475, 1.085, 0.095, 1.1325, 0.1425, 1.18, 0.19, 1.225, 0.235, 1.2725, 0.2825, 1.32, 0.33, 1.3675, 0.3775, 1.415, 0.425, 1.4625, 0.4725, 1.51, 0.52, 1.555, 0.565, 1.6025, 0.6125, 1.65, 0.66, 1.6975, 0.7075, 1.745, 0.755, 1.7925, 0.8025, 1.8375, 0.85, 1.885, 0.895, 1.9325, 0.9425],
  "SoftwareVersions": "syngo MR E11",
  "SpacingBetweenSlices": 3,
  "StationName": "AWP66061",
  "TaskName": "response",
  "TotalReadoutTime": 0.018975,
  "TxRefAmp": 260.162,
  "dcmmeta_affine": [
    [-2.999983787536621, -0.0036652113776654005, -0.009161434136331081, 104.94349670410156],
    [-0.0016640074318274856, 2.93338942527771, -0.6286676526069641, -87.37651062011719],
    [-0.009726084768772125, 0.628659188747406, 2.933375597000122, -71.44060516357422],
    [0.0, 0.0, 0.0, 1.0]
],
  "dcmmeta_reorient_transform": [
    [0.0, -1.0, 0.0, 69.0],
    [1.0, 0.0, 0.0, 0.0],
    [0.0, 0.0, -1.0, 41.0],
    [0.0, 0.0, 0.0, 1.0]
],
  "dcmmeta_shape": [70, 70, 42, 341],
  "dcmmeta_slice_dim": 2,
  "dcmmeta_version": 0.6,
  "global": {
    "const": {
      "AcquisitionMatrix": [70, 0, 0, 70],
      "AngioFlag": "N",
      "BitsAllocated": 16,
      "BitsStored": 12,
      "BodyPartExamined": "HEAD",
      "Columns": 490,
      "EchoNumbers": 1,
      "EchoTime": 22.0,
      "EchoTrainLength": 35,
      "FlipAngle": 90.0,
      "HighBit": 11,
      "ImageOrientationPatient": [0.99999459078264, 0.0005546691474, -0.0032420283165, -0.0012217371306, 0.97779651318415, -0.2095530628822],
      "ImagePositionPatient": [-733.54187357322, -705.61323498048, 226.26618554906],
      "ImageType": [
        "ORIGINAL",
        "PRIMARY",
        "M",
        "ND",
        "NORM",
        "MOSAIC"
],
      "ImagedNucleus": "1H",
      "ImagingFrequency": 123.254477,
      "InPlanePhaseEncodingDirection": "COL",
      "MRAcquisitionType": "2D",
      "MagneticFieldStrength": 3.0,
      "Manufacturer": "SIEMENS",
      "ManufacturerModelName": "Prisma",
      "Modality": "MR",
      "NumberOfAverages": 1.0,
      "NumberOfPhaseEncodingSteps": 70,
      "PercentPhaseFieldOfView": 100.0,
      "PercentSampling": 100.0,
      "PerformedProcedureStepStartTime": "135842.546000",
      "PhotometricInterpretation": "MONOCHROME2",
      "PixelBandwidth": 2165.0,
      "PixelRepresentation": 0,
      "PixelSpacing": [3.0, 3.0],
      "ProtocolName": "BOLD_ep2d_3x3x3_response1",
      "RepetitionTime": 2000.0,
      "Rows": 490,
      "SAR": 0.14722267974815,
      "SamplesPerPixel": 1,
      "ScanOptions": "FS",
      "ScanningSequence": "EP",
      "SequenceName": "*epfid2d1_70",
      "SequenceVariant": "SK",
      "SeriesDescription": "BOLD_ep2d_3x3x3_response1",
      "SeriesNumber": 4,
      "SeriesTime": "141149.901000",
      "SliceLocation": 71.135735712237,
      "SliceThickness": 3.0,
      "SmallestImagePixelValue": 0,
      "SoftwareVersions": "syngo MR E11",
      "SpacingBetweenSlices": 2.9999999514376,
      "SpecificCharacterSet": "ISO_IR 100",
      "StudyID": "1",
      "StudyTime": "135842.483000",
      "TransmitCoilName": "Body",
      "VariableFlipAngleFlag": "N",
      "WindowCenterWidthExplanation": "Algo1",
      "dBdt": 0.0},
    "slices": {}
  },
  "time": {
    "samples": {
      "AcquisitionNumber": [1, 2, 3, 4, 5, 6, 7, 8, 9, 10, 11, 12, 13, 14, 15, 16, 17, 18, 19, 20, 21, 22, 23, 24, 25, 26, 27, 28, 29, 30, 31, 32, 33, 34, 35, 36, 37, 38, 39, 40, 41, 42, 43, 44, 45, 46, 47, 48, 49, 50, 51, 52, 53, 54, 55, 56, 57, 58, 59, 60, 61, 62, 63, 64, 65, 66, 67, 68, 69, 70, 71, 72, 73, 74, 75, 76, 77, 78, 79, 80, 81, 82, 83, 84, 85, 86, 87, 88, 89, 90, 91, 92, 93, 94, 95, 96, 97, 98, 99, 100, 101, 102, 103, 104, 105, 106, 107, 108, 109, 110, 111, 112, 113, 114, 115, 116, 117, 118, 119, 120, 121, 122, 123, 124, 125, 126, 127, 128, 129, 130, 131, 132, 133, 134, 135, 136, 137, 138, 139, 140, 141, 142, 143, 144, 145, 146, 147, 148, 149, 150, 151, 152, 153, 154, 155, 156, 157, 158, 159, 160, 161, 162, 163, 164, 165, 166, 167, 168, 169, 170, 171, 172, 173, 174, 175, 176, 177, 178, 179, 180, 181, 182, 183, 184, 185, 186, 187, 188, 189, 190, 191, 192, 193, 194, 195, 196, 197, 198, 199, 200, 201, 202, 203, 204, 205, 206, 207, 208, 209, 210, 211, 212, 213, 214, 215, 216, 217, 218, 219, 220, 221, 222, 223, 224, 225, 226, 227, 228, 229, 230, 231, 232, 233, 234, 235, 236, 237, 238, 239, 240, 241, 242, 243, 244, 245, 246, 247, 248, 249, 250, 251, 252, 253, 254, 255, 256, 257, 258, 259, 260, 261, 262, 263, 264, 265, 266, 267, 268, 269, 270, 271, 272, 273, 274, 275, 276, 277, 278, 279, 280, 281, 282, 283, 284, 285, 286, 287, 288, 289, 290, 291, 292, 293, 294, 295, 296, 297, 298, 299, 300, 301, 302, 303, 304, 305, 306, 307, 308, 309, 310, 311, 312, 313, 314, 315, 316, 317, 318, 319, 320, 321, 322, 323, 324, 325, 326, 327, 328, 329, 330, 331, 332, 333, 334, 335, 336, 337, 338, 339, 340, 341],
      "AcquisitionTime": ["141140.055000", "141142.055000", "141144.055000", "141146.055000", "141148.055000", "141150.055000", "141152.055000", "141154.055000", "141156.055000", "141158.055000", "141200.055000", "141202.055000", "141204.055000", "141206.055000", "141208.055000", "141210.055000", "141212.055000", "141214.055000", "141216.055000", "141218.055000", "141220.055000", "141222.055000", "141224.055000", "141226.055000", "141228.055000", "141230.055000", "141232.055000", "141234.055000", "141236.055000", "141238.055000", "141240.055000", "141242.055000", "141244.055000", "141246.055000", "141248.055000", "141250.055000", "141252.055000", "141254.055000", "141256.055000", "141258.055000", "141300.055000", "141302.055000", "141304.055000", "141306.055000", "141308.055000", "141310.055000", "141312.055000", "141314.055000", "141316.055000", "141318.055000", "141320.055000", "141322.055000", "141324.055000", "141326.055000", "141328.055000", "141330.055000", "141332.055000", "141334.055000", "141336.055000", "141338.055000", "141340.055000", "141342.055000", "141344.055000", "141346.055000", "141348.055000", "141350.055000", "141352.055000", "141354.055000", "141356.055000", "141358.055000", "141400.055000", "141402.055000", "141404.055000", "141406.055000", "141408.055000", "141410.055000", "141412.055000", "141414.055000", "141416.055000", "141418.055000", "141420.055000", "141422.055000", "141424.055000", "141426.055000", "141428.055000", "141430.055000", "141432.055000", "141434.055000", "141436.055000", "141438.055000", "141440.055000", "141442.055000", "141444.055000", "141446.055000", "141448.055000", "141450.055000", "141452.055000", "141454.055000", "141456.055000", "141458.055000", "141500.055000", "141502.055000", "141504.055000", "141506.055000", "141508.055000", "141510.055000", "141512.055000", "141514.055000", "141516.055000", "141518.055000", "141520.055000", "141522.055000", "141524.055000", "141526.055000", "141528.055000", "141530.055000", "141532.055000", "141534.055000", "141536.055000", "141538.055000", "141540.055000", "141542.055000", "141544.055000", "141546.055000", "141548.055000", "141550.055000", "141552.055000", "141554.055000", "141556.055000", "141558.055000", "141600.055000", "141602.055000", "141604.055000", "141606.055000", "141608.055000", "141610.055000", "141612.055000", "141614.055000", "141616.055000", "141618.055000", "141620.055000", "141622.055000", "141624.055000", "141626.055000", "141628.055000", "141630.055000", "141632.055000", "141634.055000", "141636.055000", "141638.055000", "141640.055000", "141642.055000", "141644.055000", "141646.055000", "141648.055000", "141650.055000", "141652.055000", "141654.055000", "141656.055000", "141658.055000", "141700.055000", "141702.055000", "141704.055000", "141706.055000", "141708.055000", "141710.055000", "141712.055000", "141714.055000", "141716.055000", "141718.055000", "141720.055000", "141722.055000", "141724.055000", "141726.055000", "141728.055000", "141730.055000", "141732.055000", "141734.055000", "141736.055000", "141738.055000", "141740.055000", "141742.055000", "141744.055000", "141746.055000", "141748.055000", "141750.055000", "141752.055000", "141754.055000", "141756.055000", "141758.055000", "141800.055000", "141802.055000", "141804.055000", "141806.055000", "141808.055000", "141810.055000", "141812.055000", "141814.055000", "141816.055000", "141818.055000", "141820.055000", "141822.055000", "141824.055000", "141826.055000", "141828.055000", "141830.055000", "141832.055000", "141834.055000", "141836.055000", "141838.055000", "141840.055000", "141842.055000", "141844.055000", "141846.055000", "141848.055000", "141850.055000", "141852.055000", "141854.055000", "141856.055000", "141858.055000", "141900.055000", "141902.055000", "141904.055000", "141906.055000", "141908.055000", "141910.055000", "141912.055000", "141914.055000", "141916.055000", "141918.055000", "141920.055000", "141922.055000", "141924.055000", "141926.055000", "141928.055000", "141930.055000", "141932.055000", "141934.055000", "141936.055000", "141938.055000", "141940.055000", "141942.055000", "141944.055000", "141946.055000", "141948.055000", "141950.055000", "141952.055000", "141954.055000", "141956.055000", "141958.055000", "142000.055000", "142002.055000", "142004.055000", "142006.055000", "142008.055000", "142010.055000", "142012.055000", "142014.055000", "142016.055000", "142018.055000", "142020.055000", "142022.055000", "142024.055000", "142026.055000", "142028.055000", "142030.055000", "142032.055000", "142034.055000", "142036.055000", "142038.055000", "142040.055000", "142042.055000", "142044.055000", "142046.055000", "142048.055000", "142050.055000", "142052.055000", "142054.055000", "142056.055000", "142058.055000", "142100.055000", "142102.055000", "142104.055000", "142106.055000", "142108.055000", "142110.055000", "142112.055000", "142114.055000", "142116.055000", "142118.055000", "142120.055000", "142122.055000", "142124.055000", "142126.055000", "142128.055000", "142130.055000", "142132.055000", "142134.055000", "142136.055000", "142138.055000", "142140.055000", "142142.055000", "142144.055000", "142146.055000", "142148.055000", "142150.055000", "142152.055000", "142154.055000", "142156.055000", "142158.055000", "142200.055000", "142202.055000", "142204.055000", "142206.055000", "142208.055000", "142210.055000", "142212.055000", "142214.055000", "142216.055000", "142218.055000", "142220.055000", "142222.055000", "142224.055000", "142226.055000", "142228.055000", "142230.055000", "142232.055000", "142234.055000", "142236.055000", "142238.055000", "142240.055000", "142242.055000", "142244.055000", "142246.055000", "142248.055000", "142250.055000", "142252.055000", "142254.055000", "142256.055000", "142258.055000", "142300.055000"],
      "ContentTime": ["141149.905000", "141149.909000", "141149.912000", "141149.925000", "141149.928000", "141229.890000", "141229.893000", "141229.895000", "141229.898000", "141229.909000", "141229.915000", "141229.918000", "141229.921000", "141229.923000", "141229.926000", "141229.929000", "141229.932000", "141229.934000", "141229.937000", "141229.940000", "141229.943000", "141229.945000", "141229.948000", "141229.951000", "141229.954000", "141309.890000", "141309.893000", "141309.895000", "141309.898000", "141309.901000", "141309.904000", "141309.906000", "141309.909000", "141309.912000", "141309.915000", "141309.917000", "141309.920000", "141309.923000", "141309.926000", "141309.928000", "141309.931000", "141309.934000", "141309.937000", "141309.939000", "141309.942000", "141349.889000", "141349.892000", "141349.895000", "141349.897000", "141349.900000", "141349.903000", "141349.906000", "141349.908000", "141349.911000", "141349.914000", "141349.917000", "141349.919000", "141349.922000", "141349.925000", "141349.927000", "141349.930000", "141349.933000", "141349.936000", "141349.938000", "141349.941000", "141429.890000", "141429.893000", "141429.895000", "141429.898000", "141429.901000", "141429.904000", "141429.906000", "141429.909000", "141429.912000", "141429.915000", "141429.917000", "141429.920000", "141429.923000", "141429.926000", "141429.928000", "141429.931000", "141429.934000", "141429.936000", "141429.939000", "141429.942000", "141509.890000", "141509.893000", "141509.895000", "141509.898000", "141509.901000", "141509.904000", "141509.906000", "141509.909000", "141509.912000", "141509.915000", "141509.917000", "141509.920000", "141509.923000", "141509.926000", "141509.928000", "141509.931000", "141509.934000", "141509.937000", "141509.939000", "141509.942000", "141549.890000", "141549.893000", "141549.895000", "141549.898000", "141549.901000", "141549.904000", "141549.906000", "141549.909000", "141549.912000", "141549.915000", "141549.917000", "141549.920000", "141549.923000", "141549.926000", "141549.928000", "141549.931000", "141549.934000", "141549.937000", "141549.939000", "141549.942000", "141629.889000", "141629.892000", "141629.894000", "141629.897000", "141629.900000", "141629.903000", "141629.906000", "141629.908000", "141629.911000", "141629.914000", "141629.916000", "141629.919000", "141629.922000", "141629.925000", "141629.928000", "141629.931000", "141629.933000", "141629.936000", "141629.939000", "141629.941000", "141709.890000", "141709.893000", "141709.896000", "141709.898000", "141709.901000", "141709.904000", "141709.907000", "141709.909000", "141709.912000", "141709.915000", "141709.918000", "141709.920000", "141709.923000", "141709.926000", "141709.929000", "141709.932000", "141709.934000", "141709.937000", "141709.940000", "141709.943000", "141749.890000", "141749.893000", "141749.895000", "141749.898000", "141749.901000", "141749.904000", "141749.906000", "141749.909000", "141749.912000", "141749.915000", "141749.917000", "141749.920000", "141749.923000", "141749.925000", "141749.928000", "141749.931000", "141749.933000", "141749.936000", "141749.939000", "141749.942000", "141829.889000", "141829.892000", "141829.894000", "141829.897000", "141829.900000", "141829.903000", "141829.905000", "141829.908000", "141829.911000", "141829.914000", "141829.917000", "141829.919000", "141829.922000", "141829.925000", "141829.928000", "141829.930000", "141829.933000", "141829.936000", "141829.939000", "141829.941000", "141909.890000", "141909.893000", "141909.895000", "141909.898000", "141909.901000", "141909.904000", "141909.907000", "141909.909000", "141909.912000", "141909.915000", "141909.918000", "141909.920000", "141909.923000", "141909.926000", "141909.929000", "141909.931000", "141909.934000", "141909.937000", "141909.940000", "141909.943000", "141949.890000", "141949.893000", "141949.895000", "141949.898000", "141949.901000", "141949.904000", "141949.907000", "141949.910000", "141949.912000", "141949.915000", "141949.918000", "141949.921000", "141949.923000", "141949.926000", "141949.929000", "141949.932000", "141949.935000", "141949.937000", "141949.940000", "141949.943000", "142029.890000", "142029.893000", "142029.895000", "142029.898000", "142029.901000", "142029.904000", "142029.906000", "142029.909000", "142029.920000", "142029.922000", "142029.938000", "142029.941000", "142029.944000", "142029.947000", "142029.949000", "142029.952000", "142029.955000", "142029.958000", "142029.960000", "142029.963000", "142109.889000", "142109.892000", "142109.894000", "142109.897000", "142109.900000", "142109.902000", "142109.905000", "142109.908000", "142109.911000", "142109.913000", "142109.916000", "142109.919000", "142109.922000", "142109.924000", "142109.927000", "142109.930000", "142109.933000", "142109.935000", "142109.938000", "142109.941000", "142149.890000", "142149.893000", "142149.895000", "142149.898000", "142149.901000", "142149.904000", "142149.907000", "142149.910000", "142149.912000", "142149.915000", "142149.918000", "142149.921000", "142149.923000", "142149.926000", "142149.929000", "142149.932000", "142149.934000", "142149.937000", "142149.940000", "142149.943000", "142229.890000", "142229.893000", "142229.896000", "142229.899000", "142229.901000", "142229.904000", "142229.907000", "142229.910000", "142229.912000", "142229.915000", "142229.918000", "142229.921000", "142229.924000", "142229.926000", "142229.929000", "142229.932000", "142229.935000", "142229.937000", "142229.940000", "142229.943000", "142301.285000", "142301.288000", "142301.291000", "142301.293000", "142301.296000", "142301.299000", "142301.302000", "142301.305000", "142301.307000", "142301.310000", "142301.313000", "142301.316000", "142301.319000", "142301.321000", "142301.324000", "142301.327000"],
      "DataSetTrailingPadding": [
        "\u0000\u0000\u0000\u0000\u0000\u0000\u0000\u0000\u0000\u0000\u0000\u0000\u0000\u0000\u0000\u0000\u0000\u0000\u0000\u0000\u0000\u0000\u0000\u0000\u0000\u0000\u0000\u0000\u0000\u0000\u0000\u0000\u0000\u0000\u0000\u0000\u0000\u0000\u0000\u0000\u0000\u0000\u0000\u0000\u0000\u0000\u0000\u0000\u0000\u0000\u0000\u0000\u0000\u0000\u0000\u0000\u0000\u0000\u0000\u0000\u0000\u0000\u0000\u0000",
        "\u0000\u0000\u0000\u0000\u0000\u0000\u0000\u0000\u0000\u0000\u0000\u0000\u0000\u0000\u0000\u0000\u0000\u0000\u0000\u0000\u0000\u0000\u0000\u0000\u0000\u0000\u0000\u0000\u0000\u0000\u0000\u0000\u0000\u0000\u0000\u0000\u0000\u0000\u0000\u0000\u0000\u0000\u0000\u0000\u0000\u0000\u0000\u0000\u0000\u0000\u0000\u0000\u0000\u0000\u0000\u0000\u0000\u0000\u0000\u0000\u0000\u0000\u0000\u0000",
        "\u0000\u0000\u0000\u0000\u0000\u0000\u0000\u0000\u0000\u0000\u0000\u0000\u0000\u0000\u0000\u0000\u0000\u0000\u0000\u0000\u0000\u0000\u0000\u0000\u0000\u0000\u0000\u0000\u0000\u0000\u0000\u0000\u0000\u0000\u0000\u0000\u0000\u0000\u0000\u0000\u0000\u0000\u0000\u0000\u0000\u0000\u0000\u0000\u0000\u0000\u0000\u0000\u0000\u0000\u0000\u0000\u0000\u0000\u0000\u0000\u0000\u0000\u0000\u0000",
        "\u0000\u0000\u0000\u0000\u0000\u0000\u0000\u0000\u0000\u0000\u0000\u0000\u0000\u0000\u0000\u0000\u0000\u0000\u0000\u0000\u0000\u0000\u0000\u0000\u0000\u0000\u0000\u0000\u0000\u0000\u0000\u0000\u0000\u0000\u0000\u0000\u0000\u0000\u0000\u0000\u0000\u0000\u0000\u0000\u0000\u0000\u0000\u0000\u0000\u0000\u0000\u0000\u0000\u0000\u0000\u0000\u0000\u0000\u0000\u0000\u0000\u0000\u0000\u0000",
        "\u0000\u0000\u0000\u0000\u0000\u0000\u0000\u0000\u0000\u0000\u0000\u0000\u0000\u0000\u0000\u0000\u0000\u0000\u0000\u0000\u0000\u0000\u0000\u0000\u0000\u0000\u0000\u0000\u0000\u0000\u0000\u0000\u0000\u0000\u0000\u0000\u0000\u0000\u0000\u0000\u0000\u0000\u0000\u0000\u0000\u0000\u0000\u0000\u0000\u0000\u0000\u0000\u0000\u0000\u0000\u0000\u0000\u0000\u0000\u0000\u0000\u0000",
        "\u0000\u0000\u0000\u0000\u0000\u0000\u0000\u0000\u0000\u0000\u0000\u0000\u0000\u0000\u0000\u0000\u0000\u0000\u0000\u0000\u0000\u0000\u0000\u0000\u0000\u0000\u0000\u0000\u0000\u0000\u0000\u0000\u0000\u0000\u0000\u0000\u0000\u0000\u0000\u0000\u0000\u0000\u0000\u0000\u0000\u0000\u0000\u0000\u0000\u0000\u0000\u0000\u0000\u0000\u0000\u0000\u0000\u0000\u0000\u0000\u0000\u0000",
        "\u0000\u0000\u0000\u0000\u0000\u0000\u0000\u0000\u0000\u0000\u0000\u0000\u0000\u0000\u0000\u0000\u0000\u0000\u0000\u0000\u0000\u0000\u0000\u0000\u0000\u0000\u0000\u0000\u0000\u0000\u0000\u0000\u0000\u0000\u0000\u0000\u0000\u0000\u0000\u0000\u0000\u0000\u0000\u0000\u0000\u0000\u0000\u0000\u0000\u0000\u0000\u0000\u0000\u0000\u0000\u0000\u0000\u0000\u0000\u0000\u0000\u0000",
        "\u0000\u0000\u0000\u0000\u0000\u0000\u0000\u0000\u0000\u0000\u0000\u0000\u0000\u0000\u0000\u0000\u0000\u0000\u0000\u0000\u0000\u0000\u0000\u0000\u0000\u0000\u0000\u0000\u0000\u0000\u0000\u0000\u0000\u0000\u0000\u0000\u0000\u0000\u0000\u0000\u0000\u0000\u0000\u0000\u0000\u0000\u0000\u0000\u0000\u0000\u0000\u0000\u0000\u0000\u0000\u0000\u0000\u0000\u0000\u0000\u0000\u0000",
        "\u0000\u0000\u0000\u0000\u0000\u0000\u0000\u0000\u0000\u0000\u0000\u0000\u0000\u0000\u0000\u0000\u0000\u0000\u0000\u0000\u0000\u0000\u0000\u0000\u0000\u0000\u0000\u0000\u0000\u0000\u0000\u0000\u0000\u0000\u0000\u0000\u0000\u0000\u0000\u0000\u0000\u0000\u0000\u0000\u0000\u0000\u0000\u0000\u0000\u0000\u0000\u0000\u0000\u0000\u0000\u0000\u0000\u0000\u0000\u0000\u0000\u0000",
        "\u0000\u0000\u0000\u0000\u0000\u0000\u0000\u0000\u0000\u0000\u0000\u0000\u0000\u0000\u0000\u0000\u0000\u0000\u0000\u0000\u0000\u0000\u0000\u0000\u0000\u0000\u0000\u0000\u0000\u0000\u0000\u0000\u0000\u0000\u0000\u0000\u0000\u0000\u0000\u0000\u0000\u0000\u0000\u0000\u0000\u0000\u0000\u0000\u0000\u0000\u0000\u0000\u0000\u0000\u0000\u0000\u0000\u0000\u0000\u0000\u0000\u0000",
        "\u0000\u0000\u0000\u0000\u0000\u0000\u0000\u0000\u0000\u0000\u0000\u0000\u0000\u0000\u0000\u0000\u0000\u0000\u0000\u0000\u0000\u0000\u0000\u0000\u0000\u0000\u0000\u0000\u0000\u0000\u0000\u0000\u0000\u0000\u0000\u0000\u0000\u0000\u0000\u0000\u0000\u0000\u0000\u0000\u0000\u0000\u0000\u0000\u0000\u0000\u0000\u0000\u0000\u0000\u0000\u0000\u0000\u0000\u0000\u0000\u0000\u0000",
        "\u0000\u0000\u0000\u0000\u0000\u0000\u0000\u0000\u0000\u0000\u0000\u0000\u0000\u0000\u0000\u0000\u0000\u0000\u0000\u0000\u0000\u0000\u0000\u0000\u0000\u0000\u0000\u0000\u0000\u0000\u0000\u0000\u0000\u0000\u0000\u0000\u0000\u0000\u0000\u0000\u0000\u0000\u0000\u0000\u0000\u0000\u0000\u0000\u0000\u0000\u0000\u0000\u0000\u0000\u0000\u0000\u0000\u0000\u0000\u0000\u0000\u0000",
        "\u0000\u0000\u0000\u0000\u0000\u0000\u0000\u0000\u0000\u0000\u0000\u0000\u0000\u0000\u0000\u0000\u0000\u0000\u0000\u0000\u0000\u0000\u0000\u0000\u0000\u0000\u0000\u0000\u0000\u0000\u0000\u0000\u0000\u0000\u0000\u0000\u0000\u0000\u0000\u0000\u0000\u0000\u0000\u0000\u0000\u0000\u0000\u0000\u0000\u0000\u0000\u0000\u0000\u0000\u0000\u0000\u0000\u0000\u0000\u0000\u0000\u0000",
        "\u0000\u0000\u0000\u0000\u0000\u0000\u0000\u0000\u0000\u0000\u0000\u0000\u0000\u0000\u0000\u0000\u0000\u0000\u0000\u0000\u0000\u0000\u0000\u0000\u0000\u0000\u0000\u0000\u0000\u0000\u0000\u0000\u0000\u0000\u0000\u0000\u0000\u0000\u0000\u0000\u0000\u0000\u0000\u0000\u0000\u0000\u0000\u0000\u0000\u0000\u0000\u0000\u0000\u0000\u0000\u0000\u0000\u0000\u0000\u0000\u0000\u0000",
        "\u0000\u0000\u0000\u0000\u0000\u0000\u0000\u0000\u0000\u0000\u0000\u0000\u0000\u0000\u0000\u0000\u0000\u0000\u0000\u0000\u0000\u0000\u0000\u0000\u0000\u0000\u0000\u0000\u0000\u0000\u0000\u0000\u0000\u0000\u0000\u0000\u0000\u0000\u0000\u0000\u0000\u0000\u0000\u0000\u0000\u0000\u0000\u0000\u0000\u0000\u0000\u0000\u0000\u0000\u0000\u0000\u0000\u0000\u0000\u0000\u0000\u0000",
        "\u0000\u0000\u0000\u0000\u0000\u0000\u0000\u0000\u0000\u0000\u0000\u0000\u0000\u0000\u0000\u0000\u0000\u0000\u0000\u0000\u0000\u0000\u0000\u0000\u0000\u0000\u0000\u0000\u0000\u0000\u0000\u0000\u0000\u0000\u0000\u0000\u0000\u0000\u0000\u0000\u0000\u0000\u0000\u0000\u0000\u0000\u0000\u0000\u0000\u0000\u0000\u0000\u0000\u0000\u0000\u0000\u0000\u0000\u0000\u0000",
        "\u0000\u0000\u0000\u0000\u0000\u0000\u0000\u0000\u0000\u0000\u0000\u0000\u0000\u0000\u0000\u0000\u0000\u0000\u0000\u0000\u0000\u0000\u0000\u0000\u0000\u0000\u0000\u0000\u0000\u0000\u0000\u0000\u0000\u0000\u0000\u0000\u0000\u0000\u0000\u0000\u0000\u0000\u0000\u0000\u0000\u0000\u0000\u0000\u0000\u0000\u0000\u0000\u0000\u0000\u0000\u0000\u0000\u0000\u0000\u0000",
        "\u0000\u0000\u0000\u0000\u0000\u0000\u0000\u0000\u0000\u0000\u0000\u0000\u0000\u0000\u0000\u0000\u0000\u0000\u0000\u0000\u0000\u0000\u0000\u0000\u0000\u0000\u0000\u0000\u0000\u0000\u0000\u0000\u0000\u0000\u0000\u0000\u0000\u0000\u0000\u0000\u0000\u0000\u0000\u0000\u0000\u0000\u0000\u0000\u0000\u0000\u0000\u0000\u0000\u0000\u0000\u0000\u0000\u0000\u0000\u0000\u0000\u0000",
        "\u0000\u0000\u0000\u0000\u0000\u0000\u0000\u0000\u0000\u0000\u0000\u0000\u0000\u0000\u0000\u0000\u0000\u0000\u0000\u0000\u0000\u0000\u0000\u0000\u0000\u0000\u0000\u0000\u0000\u0000\u0000\u0000\u0000\u0000\u0000\u0000\u0000\u0000\u0000\u0000\u0000\u0000\u0000\u0000\u0000\u0000\u0000\u0000\u0000\u0000\u0000\u0000\u0000\u0000\u0000\u0000\u0000\u0000\u0000\u0000",
        "\u0000\u0000\u0000\u0000\u0000\u0000\u0000\u0000\u0000\u0000\u0000\u0000\u0000\u0000\u0000\u0000\u0000\u0000\u0000\u0000\u0000\u0000\u0000\u0000\u0000\u0000\u0000\u0000\u0000\u0000\u0000\u0000\u0000\u0000\u0000\u0000\u0000\u0000\u0000\u0000\u0000\u0000\u0000\u0000\u0000\u0000\u0000\u0000\u0000\u0000\u0000\u0000\u0000\u0000\u0000\u0000\u0000\u0000\u0000\u0000",
        "\u0000\u0000\u0000\u0000\u0000\u0000\u0000\u0000\u0000\u0000\u0000\u0000\u0000\u0000\u0000\u0000\u0000\u0000\u0000\u0000\u0000\u0000\u0000\u0000\u0000\u0000\u0000\u0000\u0000\u0000\u0000\u0000\u0000\u0000\u0000\u0000\u0000\u0000\u0000\u0000\u0000\u0000\u0000\u0000\u0000\u0000\u0000\u0000\u0000\u0000\u0000\u0000\u0000\u0000\u0000\u0000\u0000\u0000\u0000\u0000\u0000\u0000",
        "\u0000\u0000\u0000\u0000\u0000\u0000\u0000\u0000\u0000\u0000\u0000\u0000\u0000\u0000\u0000\u0000\u0000\u0000\u0000\u0000\u0000\u0000\u0000\u0000\u0000\u0000\u0000\u0000\u0000\u0000\u0000\u0000\u0000\u0000\u0000\u0000\u0000\u0000\u0000\u0000\u0000\u0000\u0000\u0000\u0000\u0000\u0000\u0000\u0000\u0000\u0000\u0000\u0000\u0000\u0000\u0000\u0000\u0000\u0000\u0000\u0000\u0000",
        "\u0000\u0000\u0000\u0000\u0000\u0000\u0000\u0000\u0000\u0000\u0000\u0000\u0000\u0000\u0000\u0000\u0000\u0000\u0000\u0000\u0000\u0000\u0000\u0000\u0000\u0000\u0000\u0000\u0000\u0000\u0000\u0000\u0000\u0000\u0000\u0000\u0000\u0000\u0000\u0000\u0000\u0000\u0000\u0000\u0000\u0000\u0000\u0000\u0000\u0000\u0000\u0000\u0000\u0000\u0000\u0000\u0000\u0000\u0000\u0000\u0000\u0000",
        "\u0000\u0000\u0000\u0000\u0000\u0000\u0000\u0000\u0000\u0000\u0000\u0000\u0000\u0000\u0000\u0000\u0000\u0000\u0000\u0000\u0000\u0000\u0000\u0000\u0000\u0000\u0000\u0000\u0000\u0000\u0000\u0000\u0000\u0000\u0000\u0000\u0000\u0000\u0000\u0000\u0000\u0000\u0000\u0000\u0000\u0000\u0000\u0000\u0000\u0000\u0000\u0000\u0000\u0000\u0000\u0000\u0000\u0000\u0000\u0000",
        "\u0000\u0000\u0000\u0000\u0000\u0000\u0000\u0000\u0000\u0000\u0000\u0000\u0000\u0000\u0000\u0000\u0000\u0000\u0000\u0000\u0000\u0000\u0000\u0000\u0000\u0000\u0000\u0000\u0000\u0000\u0000\u0000\u0000\u0000\u0000\u0000\u0000\u0000\u0000\u0000\u0000\u0000\u0000\u0000\u0000\u0000\u0000\u0000\u0000\u0000\u0000\u0000\u0000\u0000\u0000\u0000\u0000\u0000\u0000\u0000",
        "\u0000\u0000\u0000\u0000\u0000\u0000\u0000\u0000\u0000\u0000\u0000\u0000\u0000\u0000\u0000\u0000\u0000\u0000\u0000\u0000\u0000\u0000\u0000\u0000\u0000\u0000\u0000\u0000\u0000\u0000\u0000\u0000\u0000\u0000\u0000\u0000\u0000\u0000\u0000\u0000\u0000\u0000\u0000\u0000\u0000\u0000\u0000\u0000\u0000\u0000\u0000\u0000\u0000\u0000\u0000\u0000\u0000\u0000\u0000\u0000",
        "\u0000\u0000\u0000\u0000\u0000\u0000\u0000\u0000\u0000\u0000\u0000\u0000\u0000\u0000\u0000\u0000\u0000\u0000\u0000\u0000\u0000\u0000\u0000\u0000\u0000\u0000\u0000\u0000\u0000\u0000\u0000\u0000\u0000\u0000\u0000\u0000\u0000\u0000\u0000\u0000\u0000\u0000\u0000\u0000\u0000\u0000\u0000\u0000\u0000\u0000\u0000\u0000\u0000\u0000\u0000\u0000\u0000\u0000\u0000\u0000\u0000\u0000",
        "\u0000\u0000\u0000\u0000\u0000\u0000\u0000\u0000\u0000\u0000\u0000\u0000\u0000\u0000\u0000\u0000\u0000\u0000\u0000\u0000\u0000\u0000\u0000\u0000\u0000\u0000\u0000\u0000\u0000\u0000\u0000\u0000\u0000\u0000\u0000\u0000\u0000\u0000\u0000\u0000\u0000\u0000\u0000\u0000\u0000\u0000\u0000\u0000\u0000\u0000\u0000\u0000\u0000\u0000\u0000\u0000\u0000\u0000\u0000\u0000",
        "\u0000\u0000\u0000\u0000\u0000\u0000\u0000\u0000\u0000\u0000\u0000\u0000\u0000\u0000\u0000\u0000\u0000\u0000\u0000\u0000\u0000\u0000\u0000\u0000\u0000\u0000\u0000\u0000\u0000\u0000\u0000\u0000\u0000\u0000\u0000\u0000\u0000\u0000\u0000\u0000\u0000\u0000\u0000\u0000\u0000\u0000\u0000\u0000\u0000\u0000\u0000\u0000\u0000\u0000\u0000\u0000\u0000\u0000\u0000\u0000",
