{
  "AcquisitionMatrixPE": 70,
  "AcquisitionNumber": 1,
  "AcquisitionTime": "15:56:50.070000",
  "BandwidthPerPixelPhaseEncode": 51.948,
  "BaseResolution": 70,
  "BodyPartExamined": "HEAD",
  "CoilCombinationMethod": "Sum of Squares",
  "ConsistencyInfo": "N4_VE11C_LATEST_20160120",
  "ConversionSoftware": "dcm2niix",
  "ConversionSoftwareVersion": "v1.0.20220720",
  "DerivedVendorReportedEchoSpacing": 0.000550001,
  "DeviceSerialNumber": "66061",
  "DwellTime": 3.3e-06,
  "EchoTime": 0.022,
  "EchoTrainLength": 35,
  "EffectiveEchoSpacing": 0.000275,
  "FlipAngle": 90,
  "HeudiconvVersion": "1.1.1",
  "ImageOrientationPatientDICOM": [0.999852, 0.00435695, 0.016637, -0.00122155, 0.982926, -0.183999],
  "ImageOrientationText": "Tra>Cor(-10.6)>Sag(1.0)",
  "ImageType": [
    "ORIGINAL",
    "PRIMARY",
    "M",
    "ND",
    "NORM",
    "MOSAIC"
],
  "ImagingFrequency": 123.254,
  "InPlanePhaseEncodingDirectionDICOM": "COL",
  "InstitutionAddress": "Street StreetNo,City/1c4204/,District,KR,ZIP",
  "InstitutionName": "SKKU",
  "InstitutionalDepartmentName": "Department",
  "MRAcquisitionType": "2D",
  "MagneticFieldStrength": 3,
  "Manufacturer": "Siemens",
  "ManufacturersModelName": "Prisma",
  "MatrixCoilMode": "GRAPPA",
  "Modality": "MR",
  "NonlinearGradientCorrection": false,
  "ParallelReductionFactorInPlane": 2,
  "PartialFourier": 1,
  "PatientPosition": "HFS",
  "PercentPhaseFOV": 100,
  "PercentSampling": 100,
  "PhaseEncodingDirection": "j-",
  "PhaseEncodingSteps": 70,
  "PhaseResolution": 1,
  "PixelBandwidth": 2165,
  "ProcedureStepDescription": "Head^PI:Others",
  "ProtocolName": "BOLD_ep2d_3x3x3_dimension2",
  "PulseSequenceDetails": "%SiemensSeq%\\ep2d_pace",
  "ReceiveCoilActiveElements": "HC1-7",
  "ReceiveCoilName": "HeadNeck_64",
  "ReconMatrixPE": 70,
  "RefLinesPE": 24,
  "RepetitionTime": 2,
  "SAR": 0.133431,
  "ScanOptions": "FS",
  "ScanningSequence": "EP",
  "SequenceName": "*epfid2d1_70",
  "SequenceVariant": "SK",
  "SeriesDescription": "BOLD_ep2d_3x3x3_dimension2",
  "SeriesNumber": 5,
  "ShimSetting": [5057, 3714, 4459, 355, -105, -40, -25, 20],
  "SliceThickness": 3,
  "SliceTiming": [0.99, 0, 1.0375, 0.0475, 1.0825, 0.0925, 1.13, 0.14, 1.1775, 0.1875, 1.225, 0.235, 1.2725, 0.2825, 1.32, 0.33, 1.3675, 0.3775, 1.4125, 0.4225, 1.46, 0.47, 1.5075, 0.5175, 1.555, 0.565, 1.6025, 0.6125, 1.65, 0.66, 1.6975, 0.7075, 1.7425, 0.7525, 1.79, 0.8, 1.8375, 0.8475, 1.885, 0.895, 1.9325, 0.9425],
  "SoftwareVersions": "syngo MR E11",
  "SpacingBetweenSlices": 3,
  "StationName": "AWP66061",
  "TaskName": "dimension",
  "TotalReadoutTime": 0.018975,
  "TxRefAmp": 238.289,
  "dcmmeta_affine": [
    [-2.999556303024292, -0.003664650022983551, 0.05146374553442001, 104.71231842041016],
    [-0.013070836663246155, 2.948777198791504, -0.5518540740013123, -90.89176177978516],
    [0.04991092160344124, 0.551996648311615, 2.948357105255127, -63.412532806396484],
    [0.0, 0.0, 0.0, 1.0]
],
  "dcmmeta_reorient_transform": [
    [0.0, -1.0, 0.0, 69.0],
    [1.0, 0.0, 0.0, 0.0],
    [0.0, 0.0, -1.0, 41.0],
    [0.0, 0.0, 0.0, 1.0]
],
  "dcmmeta_shape": [70, 70, 42, 437],
  "dcmmeta_slice_dim": 2,
  "dcmmeta_version": 0.6,
  "global": {
    "const": {
      "AcquisitionMatrix": [70, 0, 0, 70],
      "AngioFlag": "N",
      "BitsAllocated": 16,
      "BitsStored": 12,
      "BodyPartExamined": "HEAD",
      "Columns": 490,
      "EchoNumbers": 1,
      "EchoTime": 22.0,
      "EchoTrainLength": 35,
      "FlipAngle": 90.0,
      "HighBit": 11,
      "ImageOrientationPatient": [0.99985210313169, 0.00435694568999, 0.01663697350426, -0.0012215499753, 0.9829256933499, -0.1839988836061],
      "ImagePositionPatient": [-735.70671781665, -711.93590371867, 200.99587483547],
      "ImageType": [
        "ORIGINAL",
        "PRIMARY",
        "M",
        "ND",
        "NORM",
        "MOSAIC"
],
      "ImagedNucleus": "1H",
      "ImagingFrequency": 123.254453,
      "InPlanePhaseEncodingDirection": "COL",
      "MRAcquisitionType": "2D",
      "MagneticFieldStrength": 3.0,
      "Manufacturer": "SIEMENS",
      "ManufacturerModelName": "Prisma",
      "Modality": "MR",
      "NumberOfAverages": 1.0,
      "NumberOfPhaseEncodingSteps": 70,
      "PercentPhaseFieldOfView": 100.0,
      "PercentSampling": 100.0,
      "PerformedProcedureStepStartTime": "153550.429000",
      "PhotometricInterpretation": "MONOCHROME2",
      "PixelBandwidth": 2165.0,
      "PixelRepresentation": 0,
      "PixelSpacing": [3.0, 3.0],
      "ProtocolName": "BOLD_ep2d_3x3x3_dimension2",
      "RepetitionTime": 2000.0,
      "Rows": 490,
      "SAR": 0.13343102240865,
      "SamplesPerPixel": 1,
      "ScanOptions": "FS",
      "ScanningSequence": "EP",
      "SequenceName": "*epfid2d1_70",
      "SequenceVariant": "SK",
      "SeriesDescription": "BOLD_ep2d_3x3x3_dimension2",
      "SeriesNumber": 5,
      "SeriesTime": "155747.416000",
      "SliceLocation": 79.195032322184,
      "SliceThickness": 3.0,
      "SmallestImagePixelValue": 0,
      "SoftwareVersions": "syngo MR E11",
      "SpacingBetweenSlices": 3.0000000672662,
      "SpecificCharacterSet": "ISO_IR 100",
      "StudyID": "1",
      "StudyTime": "153550.363000",
      "TransmitCoilName": "Body",
      "VariableFlipAngleFlag": "N",
      "WindowCenterWidthExplanation": "Algo1",
      "dBdt": 0.0},
    "slices": {}
  },
  "time": {
    "samples": {
      "AcquisitionNumber": [1, 2, 3, 4, 5, 6, 7, 8, 9, 10, 11, 12, 13, 14, 15, 16, 17, 18, 19, 20, 21, 22, 23, 24, 25, 26, 27, 28, 29, 30, 31, 32, 33, 34, 35, 36, 37, 38, 39, 40, 41, 42, 43, 44, 45, 46, 47, 48, 49, 50, 51, 52, 53, 54, 55, 56, 57, 58, 59, 60, 61, 62, 63, 64, 65, 66, 67, 68, 69, 70, 71, 72, 73, 74, 75, 76, 77, 78, 79, 80, 81, 82, 83, 84, 85, 86, 87, 88, 89, 90, 91, 92, 93, 94, 95, 96, 97, 98, 99, 100, 101, 102, 103, 104, 105, 106, 107, 108, 109, 110, 111, 112, 113, 114, 115, 116, 117, 118, 119, 120, 121, 122, 123, 124, 125, 126, 127, 128, 129, 130, 131, 132, 133, 134, 135, 136, 137, 138, 139, 140, 141, 142, 143, 144, 145, 146, 147, 148, 149, 150, 151, 152, 153, 154, 155, 156, 157, 158, 159, 160, 161, 162, 163, 164, 165, 166, 167, 168, 169, 170, 171, 172, 173, 174, 175, 176, 177, 178, 179, 180, 181, 182, 183, 184, 185, 186, 187, 188, 189, 190, 191, 192, 193, 194, 195, 196, 197, 198, 199, 200, 201, 202, 203, 204, 205, 206, 207, 208, 209, 210, 211, 212, 213, 214, 215, 216, 217, 218, 219, 220, 221, 222, 223, 224, 225, 226, 227, 228, 229, 230, 231, 232, 233, 234, 235, 236, 237, 238, 239, 240, 241, 242, 243, 244, 245, 246, 247, 248, 249, 250, 251, 252, 253, 254, 255, 256, 257, 258, 259, 260, 261, 262, 263, 264, 265, 266, 267, 268, 269, 270, 271, 272, 273, 274, 275, 276, 277, 278, 279, 280, 281, 282, 283, 284, 285, 286, 287, 288, 289, 290, 291, 292, 293, 294, 295, 296, 297, 298, 299, 300, 301, 302, 303, 304, 305, 306, 307, 308, 309, 310, 311, 312, 313, 314, 315, 316, 317, 318, 319, 320, 321, 322, 323, 324, 325, 326, 327, 328, 329, 330, 331, 332, 333, 334, 335, 336, 337, 338, 339, 340, 341, 342, 343, 344, 345, 346, 347, 348, 349, 350, 351, 352, 353, 354, 355, 356, 357, 358, 359, 360, 361, 362, 363, 364, 365, 366, 367, 368, 369, 370, 371, 372, 373, 374, 375, 376, 377, 378, 379, 380, 381, 382, 383, 384, 385, 386, 387, 388, 389, 390, 391, 392, 393, 394, 395, 396, 397, 398, 399, 400, 401, 402, 403, 404, 405, 406, 407, 408, 409, 410, 411, 412, 413, 414, 415, 416, 417, 418, 419, 420, 421, 422, 423, 424, 425, 426, 427, 428, 429, 430, 431, 432, 433, 434, 435, 436, 437],
      "AcquisitionTime": ["155650.070000", "155652.070000", "155654.070000", "155656.070000", "155658.070000", "155700.070000", "155702.070000", "155704.070000", "155706.070000", "155708.070000", "155710.070000", "155712.070000", "155714.070000", "155716.070000", "155718.070000", "155720.070000", "155722.070000", "155724.070000", "155726.070000", "155728.070000", "155730.070000", "155732.070000", "155734.070000", "155736.070000", "155738.070000", "155740.070000", "155742.070000", "155744.070000", "155746.070000", "155748.070000", "155750.070000", "155752.070000", "155754.070000", "155756.070000", "155758.070000", "155800.070000", "155802.070000", "155804.070000", "155806.070000", "155808.070000", "155810.070000", "155812.070000", "155814.070000", "155816.070000", "155818.070000", "155820.070000", "155822.070000", "155824.070000", "155826.070000", "155828.070000", "155830.070000", "155832.070000", "155834.070000", "155836.070000", "155838.070000", "155840.070000", "155842.070000", "155844.070000", "155846.070000", "155848.070000", "155850.070000", "155852.070000", "155854.070000", "155856.070000", "155858.070000", "155900.070000", "155902.070000", "155904.070000", "155906.070000", "155908.070000", "155910.070000", "155912.070000", "155914.070000", "155916.070000", "155918.070000", "155920.070000", "155922.070000", "155924.070000", "155926.070000", "155928.070000", "155930.070000", "155932.070000", "155934.070000", "155936.070000", "155938.070000", "155940.070000", "155942.070000", "155944.070000", "155946.070000", "155948.070000", "155950.070000", "155952.070000", "155954.070000", "155956.070000", "155958.070000", "160000.070000", "160002.070000", "160004.070000", "160006.070000", "160008.070000", "160010.070000", "160012.070000", "160014.070000", "160016.070000", "160018.070000", "160020.070000", "160022.070000", "160024.070000", "160026.070000", "160028.070000", "160030.070000", "160032.070000", "160034.070000", "160036.070000", "160038.070000", "160040.070000", "160042.070000", "160044.070000", "160046.070000", "160048.070000", "160050.070000", "160052.070000", "160054.070000", "160056.070000", "160058.070000", "160100.070000", "160102.070000", "160104.070000", "160106.070000", "160108.070000", "160110.070000", "160112.070000", "160114.070000", "160116.070000", "160118.070000", "160120.070000", "160122.070000", "160124.070000", "160126.070000", "160128.070000", "160130.070000", "160132.070000", "160134.070000", "160136.070000", "160138.070000", "160140.070000", "160142.070000", "160144.070000", "160146.070000", "160148.070000", "160150.070000", "160152.070000", "160154.070000", "160156.070000", "160158.070000", "160200.070000", "160202.070000", "160204.070000", "160206.070000", "160208.070000", "160210.070000", "160212.070000", "160214.070000", "160216.070000", "160218.070000", "160220.070000", "160222.070000", "160224.070000", "160226.070000", "160228.070000", "160230.070000", "160232.070000", "160234.070000", "160236.070000", "160238.070000", "160240.070000", "160242.070000", "160244.070000", "160246.070000", "160248.070000", "160250.070000", "160252.070000", "160254.070000", "160256.070000", "160258.070000", "160300.070000", "160302.070000", "160304.070000", "160306.070000", "160308.070000", "160310.070000", "160312.070000", "160314.070000", "160316.070000", "160318.070000", "160320.070000", "160322.070000", "160324.070000", "160326.070000", "160328.070000", "160330.070000", "160332.070000", "160334.070000", "160336.070000", "160338.070000", "160340.070000", "160342.070000", "160344.070000", "160346.070000", "160348.070000", "160350.070000", "160352.070000", "160354.070000", "160356.070000", "160358.070000", "160400.070000", "160402.070000", "160404.070000", "160406.070000", "160408.070000", "160410.070000", "160412.070000", "160414.070000", "160416.070000", "160418.070000", "160420.070000", "160422.070000", "160424.070000", "160426.070000", "160428.070000", "160430.070000", "160432.070000", "160434.070000", "160436.070000", "160438.070000", "160440.070000", "160442.070000", "160444.070000", "160446.070000", "160448.070000", "160450.070000", "160452.070000", "160454.070000", "160456.070000", "160458.070000", "160500.070000", "160502.070000", "160504.070000", "160506.070000", "160508.070000", "160510.070000", "160512.070000", "160514.070000", "160516.070000", "160518.070000", "160520.070000", "160522.070000", "160524.070000", "160526.070000", "160528.070000", "160530.070000", "160532.070000", "160534.070000", "160536.070000", "160538.070000", "160540.070000", "160542.070000", "160544.070000", "160546.070000", "160548.070000", "160550.070000", "160552.070000", "160554.070000", "160556.070000", "160558.070000", "160600.070000", "160602.070000", "160604.070000", "160606.070000", "160608.070000", "160610.070000", "160612.070000", "160614.070000", "160616.070000", "160618.070000", "160620.070000", "160622.070000", "160624.070000", "160626.070000", "160628.070000", "160630.070000", "160632.070000", "160634.070000", "160636.070000", "160638.070000", "160640.070000", "160642.070000", "160644.070000", "160646.070000", "160648.070000", "160650.070000", "160652.070000", "160654.070000", "160656.070000", "160658.070000", "160700.070000", "160702.070000", "160704.070000", "160706.070000", "160708.070000", "160710.070000", "160712.070000", "160714.070000", "160716.070000", "160718.070000", "160720.070000", "160722.070000", "160724.070000", "160726.070000", "160728.070000", "160730.070000", "160732.070000", "160734.070000", "160736.070000", "160738.070000", "160740.070000", "160742.070000", "160744.070000", "160746.070000", "160748.070000", "160750.070000", "160752.070000", "160754.070000", "160756.070000", "160758.070000", "160800.070000", "160802.070000", "160804.070000", "160806.070000", "160808.070000", "160810.070000", "160812.070000", "160814.070000", "160816.070000", "160818.070000", "160820.070000", "160822.070000", "160824.070000", "160826.070000", "160828.070000", "160830.070000", "160832.070000", "160834.070000", "160836.070000", "160838.070000", "160840.070000", "160842.070000", "160844.070000", "160846.070000", "160848.070000", "160850.070000", "160852.070000", "160854.070000", "160856.070000", "160858.070000", "160900.070000", "160902.070000", "160904.070000", "160906.070000", "160908.070000", "160910.070000", "160912.070000", "160914.070000", "160916.070000", "160918.070000", "160920.070000", "160922.070000", "160924.070000", "160926.070000", "160928.070000", "160930.070000", "160932.070000", "160934.070000", "160936.070000", "160938.070000", "160940.070000", "160942.070000", "160944.070000", "160946.070000", "160948.070000", "160950.070000", "160952.070000", "160954.070000", "160956.070000", "160958.070000", "161000.070000", "161002.070000", "161004.070000", "161006.070000", "161008.070000", "161010.070000", "161012.070000", "161014.070000", "161016.070000", "161018.070000", "161020.070000", "161022.070000", "161024.070000", "161026.070000", "161028.070000", "161030.070000", "161032.070000", "161034.070000", "161036.070000", "161038.070000", "161040.070000", "161042.070000", "161044.070000", "161046.070000", "161048.070000", "161050.070000", "161052.070000", "161054.070000", "161056.070000", "161058.070000", "161100.070000", "161102.070000", "161104.070000", "161106.070000", "161108.070000", "161110.070000", "161112.070000", "161114.070000", "161116.070000", "161118.070000", "161120.070000", "161122.070000"],
      "ContentTime": ["155747.419000", "155747.423000", "155747.425000", "155747.428000", "155747.431000", "155747.438000", "155747.441000", "155747.444000", "155747.446000", "155747.449000", "155747.452000", "155747.454000", "155747.457000", "155747.460000", "155747.462000", "155747.465000", "155747.468000", "155747.470000", "155747.473000", "155747.476000", "155747.478000", "155747.481000", "155747.484000", "155747.486000", "155747.489000", "155747.492000", "155747.494000", "155747.497000", "155747.500000", "155827.415000", "155827.417000", "155827.420000", "155827.423000", "155827.426000", "155827.428000", "155827.431000", "155827.434000", "155827.436000", "155827.439000", "155827.442000", "155827.448000", "155827.451000", "155827.453000", "155827.456000", "155827.459000", "155827.461000", "155827.464000", "155827.467000", "155827.469000", "155847.415000", "155847.418000", "155847.420000", "155847.423000", "155847.426000", "155847.428000", "155847.431000", "155847.434000", "155847.436000", "155847.439000", "155927.415000", "155927.417000", "155927.420000", "155927.423000", "155927.426000", "155927.428000", "155927.431000", "155927.433000", "155927.436000", "155927.439000", "155927.442000", "155927.444000", "155927.447000", "155927.450000", "155927.452000", "155927.455000", "155927.458000", "155927.460000", "155927.463000", "155927.466000", "160007.415000", "160007.418000", "160007.423000", "160007.426000", "160007.428000", "160007.431000", "160007.434000", "160007.436000", "160007.439000", "160007.442000", "160007.444000", "160007.447000", "160007.450000", "160007.452000", "160007.455000", "160007.458000", "160007.460000", "160007.463000", "160007.466000", "160007.468000", "160047.415000", "160047.418000", "160047.420000", "160047.423000", "160047.426000", "160047.428000", "160047.431000", "160047.434000", "160047.437000", "160047.439000", "160047.442000", "160047.445000", "160047.447000", "160047.450000", "160047.453000", "160047.455000", "160047.458000", "160047.461000", "160047.463000", "160047.466000", "160127.414000", "160127.417000", "160127.420000", "160127.423000", "160127.425000", "160127.428000", "160127.431000", "160127.434000", "160127.437000", "160127.439000", "160127.442000", "160127.445000", "160127.448000", "160127.450000", "160127.453000", "160127.455000", "160127.458000", "160127.461000", "160127.464000", "160127.466000", "160207.415000", "160207.418000", "160207.420000", "160207.423000", "160207.426000", "160207.428000", "160207.431000", "160207.434000", "160207.437000", "160207.439000", "160207.442000", "160207.444000", "160207.447000", "160207.450000", "160207.453000", "160207.455000", "160207.458000", "160207.461000", "160207.463000", "160207.466000", "160247.415000", "160247.418000", "160247.420000", "160247.423000", "160247.426000", "160247.428000", "160247.431000", "160247.434000", "160247.436000", "160247.439000", "160247.442000", "160247.460000", "160247.463000", "160247.466000", "160247.468000", "160247.471000", "160247.474000", "160247.476000", "160247.479000", "160247.482000", "160327.414000", "160327.417000", "160327.420000", "160327.423000", "160327.425000", "160327.428000", "160327.431000", "160327.433000", "160327.436000", "160327.439000", "160327.442000", "160327.444000", "160327.447000", "160327.450000", "160327.452000", "160327.455000", "160327.458000", "160327.460000", "160327.463000", "160327.465000", "160407.415000", "160407.418000", "160407.420000", "160407.423000", "160407.426000", "160407.428000", "160407.431000", "160407.434000", "160407.437000", "160407.439000", "160407.442000", "160407.444000", "160407.447000", "160407.450000", "160407.452000", "160407.455000", "160407.458000", "160407.460000", "160407.463000", "160407.466000", "160447.415000", "160447.417000", "160447.420000", "160447.423000", "160447.426000", "160447.428000", "160447.431000", "160447.434000", "160447.436000", "160447.439000", "160447.442000", "160447.444000", "160447.447000", "160447.450000", "160447.453000", "160447.455000", "160447.458000", "160447.461000", "160447.463000", "160447.466000", "160527.415000", "160527.417000", "160527.420000", "160527.423000", "160527.426000", "160527.428000", "160527.431000", "160527.434000", "160527.436000", "160527.439000", "160527.442000", "160527.444000", "160527.447000", "160527.450000", "160527.452000", "160527.455000", "160527.458000", "160527.460000", "160527.463000", "160527.466000", "160607.415000", "160607.418000", "160607.420000", "160607.423000", "160607.431000", "160607.434000", "160607.437000", "160607.439000", "160607.442000", "160607.445000", "160607.447000", "160607.450000", "160607.453000", "160607.456000", "160607.458000", "160607.461000", "160607.464000", "160607.466000", "160607.469000", "160607.472000", "160647.415000", "160647.418000", "160647.420000", "160647.423000", "160647.426000", "160647.428000", "160647.431000", "160647.434000", "160647.437000", "160647.439000", "160647.442000", "160647.445000", "160647.448000", "160647.450000", "160647.453000", "160647.455000", "160647.458000", "160647.461000", "160647.464000", "160647.466000", "160727.415000", "160727.417000", "160727.420000", "160727.423000", "160727.426000", "160727.428000", "160727.431000", "160727.434000", "160727.436000", "160727.439000", "160727.442000", "160727.444000", "160727.447000", "160727.450000", "160727.452000", "160727.455000", "160727.458000", "160727.461000", "160727.463000", "160727.466000", "160807.415000", "160807.418000", "160807.420000", "160807.423000", "160807.426000", "160807.428000", "160807.431000", "160807.434000", "160807.436000", "160807.439000", "160807.442000", "160807.444000", "160807.447000", "160807.450000", "160807.452000", "160807.455000", "160807.458000", "160807.461000", "160807.463000", "160807.466000", "160847.415000", "160847.418000", "160847.420000", "160847.423000", "160847.426000", "160847.428000", "160847.431000", "160847.434000", "160847.437000", "160847.439000", "160847.442000", "160847.445000", "160847.447000", "160847.450000", "160847.453000", "160847.455000", "160847.458000", "160847.461000", "160847.463000", "160847.466000", "160927.415000", "160927.418000", "160927.420000", "160927.423000", "160927.426000", "160927.428000", "160927.431000", "160927.434000", "160927.436000", "160927.439000", "160927.442000", "160927.444000", "160927.447000", "160927.450000", "160927.453000", "160927.455000", "160927.458000", "160927.461000", "160927.463000", "160927.466000", "161007.415000", "161007.418000", "161007.420000", "161007.423000", "161007.426000", "161007.428000", "161007.431000", "161007.434000", "161007.436000", "161007.439000", "161007.442000", "161007.444000", "161007.463000", "161007.466000", "161007.468000", "161007.471000", "161007.474000", "161007.476000", "161007.479000", "161007.482000", "161047.415000", "161047.418000", "161047.420000", "161047.423000", "161047.426000", "161047.428000", "161047.431000", "161047.434000", "161047.437000", "161047.439000", "161047.442000", "161047.445000", "161047.447000", "161047.450000", "161047.453000", "161047.455000", "161047.458000", "161047.461000", "161047.463000", "161047.466000", "161123.366000", "161123.369000", "161123.372000", "161123.374000", "161123.377000", "161123.380000", "161123.383000", "161123.385000", "161123.389000", "161123.392000", "161123.395000", "161123.398000", "161123.401000", "161123.404000", "161123.406000", "161123.409000", "161123.412000", "161123.415000"],
      "InstanceCreationTime": ["155747.419000", "155747.423000", "155747.425000", "155747.428000", "155747.431000", "155747.438000", "155747.441000", "155747.444000", "155747.446000", "155747.449000", "155747.452000", "155747.454000", "155747.457000", "155747.460000", "155747.462000", "155747.465000", "155747.468000", "155747.470000", "155747.473000", "155747.476000", "155747.478000", "155747.481000", "155747.484000", "155747.486000", "155747.489000", "155747.492000", "155747.494000", "155747.497000", "155747.500000", "155827.415000", "155827.417000", "155827.420000", "155827.423000", "155827.426000", "155827.428000", "155827.431000", "155827.434000", "155827.436000", "155827.439000", "155827.442000", "155827.448000", "155827.451000", "155827.453000", "155827.456000", "155827.459000", "155827.461000", "155827.464000", "155827.467000", "155827.469000", "155847.415000", "155847.418000", "155847.420000", "155847.423000", "155847.426000", "155847.428000", "155847.431000", "155847.434000", "155847.436000", "155847.439000", "155927.415000", "155927.417000", "155927.420000", "155927.423000", "155927.426000", "155927.428000", "155927.431000", "155927.433000", "155927.436000", "155927.439000", "155927.442000", "155927.444000", "155927.447000", "155927.450000", "155927.452000", "155927.455000", "155927.458000", "155927.460000", "155927.463000", "155927.466000", "160007.415000", "160007.418000", "160007.423000", "160007.426000", "160007.428000", "160007.431000", "160007.434000", "160007.436000", "160007.439000", "160007.442000", "160007.444000", "160007.447000", "160007.450000", "160007.452000", "160007.455000", "160007.458000", "160007.460000", "160007.463000", "160007.466000", "160007.468000", "160047.415000", "160047.418000", "160047.420000", "160047.423000", "160047.426000", "160047.428000", "160047.431000", "160047.434000", "160047.437000", "160047.439000", "160047.442000", "160047.445000", "160047.447000", "160047.450000", "160047.453000", "160047.455000", "160047.458000", "160047.461000", "160047.463000", "160047.466000", "160127.414000", "160127.417000", "160127.420000", "160127.423000", "160127.425000", "160127.428000", "160127.431000", "160127.434000", "160127.437000", "160127.439000", "160127.442000", "160127.445000", "160127.448000", "160127.450000", "160127.453000", "160127.455000", "160127.458000", "160127.461000", "160127.464000", "160127.466000", "160207.415000", "160207.418000", "160207.420000", "160207.423000", "160207.426000", "160207.428000", "160207.431000", "160207.434000", "160207.437000", "160207.439000", "160207.442000", "160207.444000", "160207.447000", "160207.450000", "160207.453000", "160207.455000", "160207.458000", "160207.461000", "160207.463000", "160207.466000", "160247.415000", "160247.418000", "160247.420000", "160247.423000", "160247.426000", "160247.428000", "160247.431000", "160247.434000", "160247.436000", "160247.439000", "160247.442000", "160247.460000", "160247.463000", "160247.466000", "160247.468000", "160247.471000", "160247.474000", "160247.476000", "160247.479000", "160247.482000", "160327.414000", "160327.417000", "160327.420000", "160327.423000", "160327.425000", "160327.428000", "160327.431000", "160327.433000", "160327.436000", "160327.439000", "160327.442000", "160327.444000", "160327.447000", "160327.450000", "160327.452000", "160327.455000", "160327.458000", "160327.460000", "160327.463000", "160327.465000", "160407.415000", "160407.418000", "160407.420000", "160407.423000", "160407.426000", "160407.428000", "160407.431000", "160407.434000", "160407.437000", "160407.439000", "160407.442000", "160407.444000", "160407.447000", "160407.450000", "160407.452000", "160407.455000", "160407.458000", "160407.460000", "160407.463000", "160407.466000", "160447.415000", "160447.417000", "160447.420000", "160447.423000", "160447.426000", "160447.428000", "160447.431000", "160447.434000", "160447.436000", "160447.439000", "160447.442000", "160447.444000", "160447.447000", "160447.450000", "160447.453000", "160447.455000", "160447.458000", "160447.461000", "160447.463000", "160447.466000", "160527.415000", "160527.417000", "160527.420000", "160527.423000", "160527.426000", "160527.428000", "160527.431000", "160527.434000", "160527.436000", "160527.439000", "160527.442000", "160527.444000", "160527.447000", "160527.450000", "160527.452000", "160527.455000", "160527.458000", "160527.460000", "160527.463000", "160527.466000", "160607.415000", "160607.418000", "160607.420000", "160607.423000", "160607.431000", "160607.434000", "160607.437000", "160607.439000", "160607.442000", "160607.445000", "160607.447000", "160607.450000", "160607.453000", "160607.456000", "160607.458000", "160607.461000", "160607.464000", "160607.466000", "160607.469000", "160607.472000", "160647.415000", "160647.418000", "160647.420000", "160647.423000", "160647.426000", "160647.428000", "160647.431000", "160647.434000", "160647.437000", "160647.439000", "160647.442000", "160647.445000", "160647.448000", "160647.450000", "160647.453000", "160647.455000", "160647.458000", "160647.461000", "160647.464000", "160647.466000", "160727.415000", "160727.417000", "160727.420000", "160727.423000", "160727.426000", "160727.428000", "160727.431000", "160727.434000", "160727.436000", "160727.439000", "160727.442000", "160727.444000", "160727.447000", "160727.450000", "160727.452000", "160727.455000", "160727.458000", "160727.461000", "160727.463000", "160727.466000", "160807.415000", "160807.418000", "160807.420000", "160807.423000", "160807.426000", "160807.428000", "160807.431000", "160807.434000", "160807.436000", "160807.439000", "160807.442000", "160807.444000", "160807.447000", "160807.450000", "160807.452000", "160807.455000", "160807.458000", "160807.461000", "160807.463000", "160807.466000", "160847.415000", "160847.418000", "160847.420000", "160847.423000", "160847.426000", "160847.428000", "160847.431000", "160847.434000", "160847.437000", "160847.439000", "160847.442000", "160847.445000", "160847.447000", "160847.450000", "160847.453000", "160847.455000", "160847.458000", "160847.461000", "160847.463000", "160847.466000", "160927.415000", "160927.418000", "160927.420000", "160927.423000", "160927.426000", "160927.428000", "160927.431000", "160927.434000", "160927.436000", "160927.439000", "160927.442000", "160927.444000", "160927.447000", "160927.450000", "160927.453000", "160927.455000", "160927.458000", "160927.461000", "160927.463000", "160927.466000", "161007.415000", "161007.418000", "161007.420000", "161007.423000", "161007.426000", "161007.428000", "161007.431000", "161007.434000", "161007.436000", "161007.439000", "161007.442000", "161007.444000", "161007.463000", "161007.466000", "161007.468000", "161007.471000", "161007.474000", "161007.476000", "161007.479000", "161007.482000", "161047.415000", "161047.418000", "161047.420000", "161047.423000", "161047.426000", "161047.428000", "161047.431000", "161047.434000", "161047.437000", "161047.439000", "161047.442000", "161047.445000", "161047.447000", "161047.450000", "161047.453000", "161047.455000", "161047.458000", "161047.461000", "161047.463000", "161047.466000", "161123.366000", "161123.369000", "161123.372000", "161123.374000", "161123.377000", "161123.380000", "161123.383000", "161123.385000", "161123.389000", "161123.392000", "161123.395000", "161123.398000", "161123.401000", "161123.404000", "161123.406000", "161123.409000", "161123.412000", "161123.415000"],
