{
  "AcquisitionMatrixPE": 70,
  "AcquisitionNumber": 1,
  "AcquisitionTime": "16:38:1.485000",
  "BandwidthPerPixelPhaseEncode": 51.948,
  "BaseResolution": 70,
  "BodyPartExamined": "HEAD",
  "CoilCombinationMethod": "Sum of Squares",
  "ConsistencyInfo": "N4_VE11C_LATEST_20160120",
  "ConversionSoftware": "dcm2niix",
  "ConversionSoftwareVersion": "v1.0.20220720",
  "DerivedVendorReportedEchoSpacing": 0.000550001,
  "DeviceSerialNumber": "66061",
  "DwellTime": 3.3e-06,
  "EchoTime": 0.022,
  "EchoTrainLength": 35,
  "EffectiveEchoSpacing": 0.000275,
  "FlipAngle": 90,
  "HeudiconvVersion": "1.1.1",
  "ImageOrientationPatientDICOM": [0.999852, 0.00435695, 0.016637, -0.00122155, 0.982926, -0.183999],
  "ImageOrientationText": "Tra>Cor(-10.6)>Sag(1.0)",
  "ImageType": [
    "ORIGINAL",
    "PRIMARY",
    "M",
    "ND",
    "NORM",
    "MOSAIC"
],
  "ImagingFrequency": 123.254,
  "InPlanePhaseEncodingDirectionDICOM": "COL",
  "InstitutionAddress": "Street StreetNo,City/1c4204/,District,KR,ZIP",
  "InstitutionName": "SKKU",
  "InstitutionalDepartmentName": "Department",
  "MRAcquisitionType": "2D",
  "MagneticFieldStrength": 3,
  "Manufacturer": "Siemens",
  "ManufacturersModelName": "Prisma",
  "MatrixCoilMode": "GRAPPA",
  "Modality": "MR",
  "NonlinearGradientCorrection": false,
  "ParallelReductionFactorInPlane": 2,
  "PartialFourier": 1,
  "PatientPosition": "HFS",
  "PercentPhaseFOV": 100,
  "PercentSampling": 100,
  "PhaseEncodingDirection": "j-",
  "PhaseEncodingSteps": 70,
  "PhaseResolution": 1,
  "PixelBandwidth": 2165,
  "ProcedureStepDescription": "Head^PI:Others",
  "ProtocolName": "BOLD_ep2d_3x3x3_feature4",
  "PulseSequenceDetails": "%SiemensSeq%\\ep2d_pace",
  "ReceiveCoilActiveElements": "HC1-7",
  "ReceiveCoilName": "HeadNeck_64",
  "ReconMatrixPE": 70,
  "RefLinesPE": 24,
  "RepetitionTime": 2,
  "SAR": 0.13343,
  "ScanOptions": "FS",
  "ScanningSequence": "EP",
  "SequenceName": "*epfid2d1_70",
  "SequenceVariant": "SK",
  "SeriesDescription": "BOLD_ep2d_3x3x3_feature4",
  "SeriesNumber": 9,
  "ShimSetting": [5057, 3714, 4459, 355, -105, -40, -25, 20],
  "SliceThickness": 3,
  "SliceTiming": [0.99, 0, 1.0375, 0.0475, 1.085, 0.095, 1.1325, 0.1425, 1.18, 0.19, 1.2275, 0.2375, 1.275, 0.285, 1.32, 0.33, 1.3675, 0.3775, 1.415, 0.425, 1.4625, 0.4725, 1.51, 0.52, 1.5575, 0.5675, 1.605, 0.615, 1.65, 0.66, 1.6975, 0.7075, 1.745, 0.755, 1.7925, 0.8025, 1.84, 0.85, 1.8875, 0.8975, 1.935, 0.945],
  "SoftwareVersions": "syngo MR E11",
  "SpacingBetweenSlices": 3,
  "StationName": "AWP66061",
  "TaskName": "feature",
  "TotalReadoutTime": 0.018975,
  "TxRefAmp": 238.289,
  "dcmmeta_affine": [
    [-2.999556303024292, -0.003664650022983551, 0.05146374553442001, 104.71231842041016],
    [-0.013070836663246155, 2.948777198791504, -0.5518540740013123, -90.89176177978516],
    [0.04991092160344124, 0.551996648311615, 2.948357105255127, -63.412532806396484],
    [0.0, 0.0, 0.0, 1.0]
],
  "dcmmeta_reorient_transform": [
    [0.0, -1.0, 0.0, 69.0],
    [1.0, 0.0, 0.0, 0.0],
    [0.0, 0.0, -1.0, 41.0],
    [0.0, 0.0, 0.0, 1.0]
],
  "dcmmeta_shape": [70, 70, 42, 221],
  "dcmmeta_slice_dim": 2,
  "dcmmeta_version": 0.6,
  "global": {
    "const": {
      "AcquisitionMatrix": [70, 0, 0, 70],
      "AngioFlag": "N",
      "BitsAllocated": 16,
      "BitsStored": 12,
      "BodyPartExamined": "HEAD",
      "Columns": 490,
      "EchoNumbers": 1,
      "EchoTime": 22.0,
      "EchoTrainLength": 35,
      "FlipAngle": 90.0,
      "HighBit": 11,
      "ImageOrientationPatient": [0.99985210313169, 0.00435694568999, 0.01663697350426, -0.0012215499753, 0.9829256933499, -0.1839988836061],
      "ImagePositionPatient": [-735.70671781665, -711.93590371867, 200.99587483547],
      "ImageType": [
        "ORIGINAL",
        "PRIMARY",
        "M",
        "ND",
        "NORM",
        "MOSAIC"
],
      "ImagedNucleus": "1H",
      "ImagingFrequency": 123.254458,
      "InPlanePhaseEncodingDirection": "COL",
      "MRAcquisitionType": "2D",
      "MagneticFieldStrength": 3.0,
      "Manufacturer": "SIEMENS",
      "ManufacturerModelName": "Prisma",
      "Modality": "MR",
      "NumberOfAverages": 1.0,
      "NumberOfPhaseEncodingSteps": 70,
      "PercentPhaseFieldOfView": 100.0,
      "PercentSampling": 100.0,
      "PerformedProcedureStepStartTime": "153550.429000",
      "PhotometricInterpretation": "MONOCHROME2",
      "PixelBandwidth": 2165.0,
      "PixelRepresentation": 0,
      "PixelSpacing": [3.0, 3.0],
      "ProtocolName": "BOLD_ep2d_3x3x3_feature4",
      "RepetitionTime": 2000.0,
      "Rows": 490,
      "SAR": 0.13342955569509,
      "SamplesPerPixel": 1,
      "ScanOptions": "FS",
      "ScanningSequence": "EP",
      "SequenceName": "*epfid2d1_70",
      "SequenceVariant": "SK",
      "SeriesDescription": "BOLD_ep2d_3x3x3_feature4",
      "SeriesNumber": 9,
      "SeriesTime": "163845.815000",
      "SliceLocation": 79.195032322184,
      "SliceThickness": 3.0,
      "SmallestImagePixelValue": 0,
      "SoftwareVersions": "syngo MR E11",
      "SpacingBetweenSlices": 3.0000000672662,
      "SpecificCharacterSet": "ISO_IR 100",
      "StudyID": "1",
      "StudyTime": "153550.363000",
      "TransmitCoilName": "Body",
      "VariableFlipAngleFlag": "N",
      "WindowCenterWidthExplanation": "Algo1",
      "dBdt": 0.0},
    "slices": {}
  },
  "time": {
    "samples": {
      "AcquisitionNumber": [1, 2, 3, 4, 5, 6, 7, 8, 9, 10, 11, 12, 13, 14, 15, 16, 17, 18, 19, 20, 21, 22, 23, 24, 25, 26, 27, 28, 29, 30, 31, 32, 33, 34, 35, 36, 37, 38, 39, 40, 41, 42, 43, 44, 45, 46, 47, 48, 49, 50, 51, 52, 53, 54, 55, 56, 57, 58, 59, 60, 61, 62, 63, 64, 65, 66, 67, 68, 69, 70, 71, 72, 73, 74, 75, 76, 77, 78, 79, 80, 81, 82, 83, 84, 85, 86, 87, 88, 89, 90, 91, 92, 93, 94, 95, 96, 97, 98, 99, 100, 101, 102, 103, 104, 105, 106, 107, 108, 109, 110, 111, 112, 113, 114, 115, 116, 117, 118, 119, 120, 121, 122, 123, 124, 125, 126, 127, 128, 129, 130, 131, 132, 133, 134, 135, 136, 137, 138, 139, 140, 141, 142, 143, 144, 145, 146, 147, 148, 149, 150, 151, 152, 153, 154, 155, 156, 157, 158, 159, 160, 161, 162, 163, 164, 165, 166, 167, 168, 169, 170, 171, 172, 173, 174, 175, 176, 177, 178, 179, 180, 181, 182, 183, 184, 185, 186, 187, 188, 189, 190, 191, 192, 193, 194, 195, 196, 197, 198, 199, 200, 201, 202, 203, 204, 205, 206, 207, 208, 209, 210, 211, 212, 213, 214, 215, 216, 217, 218, 219, 220, 221],
      "AcquisitionTime": ["163801.485000", "163803.485000", "163805.485000", "163807.485000", "163809.485000", "163811.485000", "163813.485000", "163815.485000", "163817.485000", "163819.485000", "163821.485000", "163823.485000", "163825.485000", "163827.485000", "163829.485000", "163831.485000", "163833.485000", "163835.485000", "163837.485000", "163839.485000", "163841.485000", "163843.485000", "163845.485000", "163847.485000", "163849.485000", "163851.485000", "163853.485000", "163855.485000", "163857.485000", "163859.485000", "163901.485000", "163903.485000", "163905.485000", "163907.485000", "163909.485000", "163911.485000", "163913.485000", "163915.485000", "163917.485000", "163919.485000", "163921.485000", "163923.485000", "163925.485000", "163927.485000", "163929.485000", "163931.485000", "163933.485000", "163935.485000", "163937.485000", "163939.485000", "163941.485000", "163943.485000", "163945.485000", "163947.485000", "163949.485000", "163951.485000", "163953.485000", "163955.485000", "163957.485000", "163959.485000", "164001.485000", "164003.485000", "164005.485000", "164007.485000", "164009.485000", "164011.485000", "164013.485000", "164015.485000", "164017.485000", "164019.485000", "164021.485000", "164023.485000", "164025.485000", "164027.485000", "164029.485000", "164031.485000", "164033.485000", "164035.485000", "164037.485000", "164039.485000", "164041.485000", "164043.485000", "164045.485000", "164047.485000", "164049.485000", "164051.485000", "164053.485000", "164055.485000", "164057.485000", "164059.485000", "164101.485000", "164103.485000", "164105.485000", "164107.485000", "164109.485000", "164111.485000", "164113.485000", "164115.485000", "164117.485000", "164119.485000", "164121.485000", "164123.485000", "164125.485000", "164127.485000", "164129.485000", "164131.485000", "164133.485000", "164135.485000", "164137.485000", "164139.485000", "164141.485000", "164143.485000", "164145.485000", "164147.485000", "164149.485000", "164151.485000", "164153.485000", "164155.485000", "164157.485000", "164159.485000", "164201.485000", "164203.485000", "164205.485000", "164207.485000", "164209.485000", "164211.485000", "164213.485000", "164215.485000", "164217.485000", "164219.485000", "164221.485000", "164223.485000", "164225.485000", "164227.485000", "164229.485000", "164231.485000", "164233.485000", "164235.485000", "164237.485000", "164239.485000", "164241.485000", "164243.485000", "164245.485000", "164247.485000", "164249.485000", "164251.485000", "164253.485000", "164255.485000", "164257.485000", "164259.485000", "164301.485000", "164303.485000", "164305.485000", "164307.485000", "164309.485000", "164311.485000", "164313.485000", "164315.485000", "164317.485000", "164319.485000", "164321.485000", "164323.485000", "164325.485000", "164327.485000", "164329.485000", "164331.485000", "164333.485000", "164335.485000", "164337.485000", "164339.485000", "164341.485000", "164343.485000", "164345.485000", "164347.485000", "164349.485000", "164351.485000", "164353.485000", "164355.485000", "164357.485000", "164359.485000", "164401.485000", "164403.485000", "164405.485000", "164407.485000", "164409.485000", "164411.485000", "164413.485000", "164415.485000", "164417.485000", "164419.485000", "164421.485000", "164423.485000", "164425.485000", "164427.485000", "164429.485000", "164431.485000", "164433.485000", "164435.485000", "164437.485000", "164439.485000", "164441.485000", "164443.485000", "164445.485000", "164447.485000", "164449.485000", "164451.485000", "164453.485000", "164455.485000", "164457.485000", "164459.485000", "164501.485000", "164503.485000", "164505.485000", "164507.485000", "164509.485000", "164511.485000", "164513.485000", "164515.485000", "164517.485000", "164519.485000", "164521.485000"],
      "ContentTime": ["163845.818000", "163845.822000", "163845.824000", "163845.827000", "163845.830000", "163845.833000", "163845.847000", "163845.850000", "163845.852000", "163845.855000", "163845.858000", "163845.860000", "163845.863000", "163845.866000", "163845.868000", "163845.871000", "163845.874000", "163845.877000", "163845.880000", "163845.882000", "163845.885000", "163845.888000", "163925.813000", "163925.830000", "163925.833000", "163925.836000", "163925.838000", "163925.841000", "163925.844000", "163925.846000", "163925.849000", "163925.851000", "163925.854000", "163925.857000", "163925.859000", "163925.862000", "163925.865000", "163925.867000", "163925.870000", "163925.873000", "163925.875000", "163925.878000", "164005.813000", "164005.822000", "164005.825000", "164005.828000", "164005.830000", "164005.833000", "164005.836000", "164005.838000", "164005.841000", "164005.844000", "164005.847000", "164005.857000", "164005.860000", "164005.863000", "164005.865000", "164005.868000", "164005.870000", "164005.873000", "164005.876000", "164005.878000", "164045.813000", "164045.816000", "164045.818000", "164045.821000", "164045.823000", "164045.826000", "164045.847000", "164045.850000", "164045.853000", "164045.855000", "164045.858000", "164045.861000", "164045.863000", "164045.866000", "164045.869000", "164045.871000", "164045.874000", "164045.877000", "164045.879000", "164045.882000", "164125.814000", "164125.817000", "164125.819000", "164125.822000", "164125.825000", "164125.827000", "164125.830000", "164125.833000", "164125.835000", "164125.838000", "164125.841000", "164125.844000", "164125.847000", "164125.849000", "164125.852000", "164125.855000", "164125.857000", "164125.860000", "164125.863000", "164125.865000", "164205.813000", "164205.816000", "164205.818000", "164205.821000", "164205.824000", "164205.826000", "164205.829000", "164205.832000", "164205.834000", "164205.837000", "164205.840000", "164205.842000", "164205.845000", "164205.848000", "164205.850000", "164205.853000", "164205.855000", "164205.858000", "164205.861000", "164205.864000", "164245.813000", "164245.816000", "164245.818000", "164245.821000", "164245.824000", "164245.826000", "164245.829000", "164245.832000", "164245.834000", "164245.837000", "164245.840000", "164245.842000", "164245.845000", "164245.848000", "164245.850000", "164245.853000", "164245.856000", "164245.858000", "164245.861000", "164245.864000", "164325.814000", "164325.817000", "164325.819000", "164325.822000", "164325.825000", "164325.827000", "164325.830000", "164325.833000", "164325.835000", "164325.838000", "164325.841000", "164325.843000", "164325.846000", "164325.849000", "164325.851000", "164325.854000", "164325.857000", "164325.859000", "164325.862000", "164325.865000", "164405.813000", "164405.816000", "164405.818000", "164405.821000", "164405.824000", "164405.827000", "164405.829000", "164405.832000", "164405.835000", "164405.837000", "164405.840000", "164405.843000", "164405.845000", "164405.848000", "164405.851000", "164405.853000", "164405.856000", "164405.859000", "164405.861000", "164405.864000", "164445.813000", "164445.816000", "164445.819000", "164445.822000", "164445.825000", "164445.828000", "164445.831000", "164445.833000", "164445.836000", "164445.839000", "164445.841000", "164445.844000", "164445.847000", "164445.849000", "164445.852000", "164445.855000", "164445.857000", "164445.860000", "164445.863000", "164445.865000", "164523.232000", "164523.235000", "164523.237000", "164523.240000", "164523.243000", "164523.246000", "164523.248000", "164523.251000", "164523.254000", "164523.257000", "164523.259000", "164523.262000", "164523.271000", "164523.274000", "164523.282000", "164523.288000", "164523.291000", "164523.294000", "164523.297000"],
      "InstanceCreationTime": ["163845.818000", "163845.822000", "163845.824000", "163845.827000", "163845.830000", "163845.833000", "163845.847000", "163845.850000", "163845.852000", "163845.855000", "163845.858000", "163845.860000", "163845.863000", "163845.866000", "163845.868000", "163845.871000", "163845.874000", "163845.877000", "163845.880000", "163845.882000", "163845.885000", "163845.888000", "163925.813000", "163925.830000", "163925.833000", "163925.836000", "163925.838000", "163925.841000", "163925.844000", "163925.846000", "163925.849000", "163925.851000", "163925.854000", "163925.857000", "163925.859000", "163925.862000", "163925.865000", "163925.867000", "163925.870000", "163925.873000", "163925.875000", "163925.878000", "164005.813000", "164005.822000", "164005.825000", "164005.828000", "164005.830000", "164005.833000", "164005.836000", "164005.838000", "164005.841000", "164005.844000", "164005.847000", "164005.857000", "164005.860000", "164005.863000", "164005.865000", "164005.868000", "164005.870000", "164005.873000", "164005.876000", "164005.878000", "164045.813000", "164045.816000", "164045.818000", "164045.821000", "164045.823000", "164045.826000", "164045.847000", "164045.850000", "164045.853000", "164045.855000", "164045.858000", "164045.861000", "164045.863000", "164045.866000", "164045.869000", "164045.871000", "164045.874000", "164045.877000", "164045.879000", "164045.882000", "164125.814000", "164125.817000", "164125.819000", "164125.822000", "164125.825000", "164125.827000", "164125.830000", "164125.833000", "164125.835000", "164125.838000", "164125.841000", "164125.844000", "164125.847000", "164125.849000", "164125.852000", "164125.855000", "164125.857000", "164125.860000", "164125.863000", "164125.865000", "164205.813000", "164205.816000", "164205.818000", "164205.821000", "164205.824000", "164205.826000", "164205.829000", "164205.832000", "164205.834000", "164205.837000", "164205.840000", "164205.842000", "164205.845000", "164205.848000", "164205.850000", "164205.853000", "164205.855000", "164205.858000", "164205.861000", "164205.864000", "164245.813000", "164245.816000", "164245.818000", "164245.821000", "164245.824000", "164245.826000", "164245.829000", "164245.832000", "164245.834000", "164245.837000", "164245.840000", "164245.842000", "164245.845000", "164245.848000", "164245.850000", "164245.853000", "164245.856000", "164245.858000", "164245.861000", "164245.864000", "164325.814000", "164325.817000", "164325.819000", "164325.822000", "164325.825000", "164325.827000", "164325.830000", "164325.833000", "164325.835000", "164325.838000", "164325.841000", "164325.843000", "164325.846000", "164325.849000", "164325.851000", "164325.854000", "164325.857000", "164325.859000", "164325.862000", "164325.865000", "164405.813000", "164405.816000", "164405.818000", "164405.821000", "164405.824000", "164405.827000", "164405.829000", "164405.832000", "164405.835000", "164405.837000", "164405.840000", "164405.843000", "164405.845000", "164405.848000", "164405.851000", "164405.853000", "164405.856000", "164405.859000", "164405.861000", "164405.864000", "164445.813000", "164445.816000", "164445.819000", "164445.822000", "164445.825000", "164445.828000", "164445.831000", "164445.833000", "164445.836000", "164445.839000", "164445.841000", "164445.844000", "164445.847000", "164445.849000", "164445.852000", "164445.855000", "164445.857000", "164445.860000", "164445.863000", "164445.865000", "164523.232000", "164523.235000", "164523.237000", "164523.240000", "164523.243000", "164523.246000", "164523.248000", "164523.251000", "164523.254000", "164523.257000", "164523.259000", "164523.262000", "164523.271000", "164523.274000", "164523.282000", "164523.288000", "164523.291000", "164523.294000", "164523.297000"],
      "InstanceNumber": [1, 2, 3, 4, 5, 6, 7, 8, 9, 10, 11, 12, 13, 14, 15, 16, 17, 18, 19, 20, 21, 22, 23, 24, 25, 26, 27, 28, 29, 30, 31, 32, 33, 34, 35, 36, 37, 38, 39, 40, 41, 42, 43, 44, 45, 46, 47, 48, 49, 50, 51, 52, 53, 54, 55, 56, 57, 58, 59, 60, 61, 62, 63, 64, 65, 66, 67, 68, 69, 70, 71, 72, 73, 74, 75, 76, 77, 78, 79, 80, 81, 82, 83, 84, 85, 86, 87, 88, 89, 90, 91, 92, 93, 94, 95, 96, 97, 98, 99, 100, 101, 102, 103, 104, 105, 106, 107, 108, 109, 110, 111, 112, 113, 114, 115, 116, 117, 118, 119, 120, 121, 122, 123, 124, 125, 126, 127, 128, 129, 130, 131, 132, 133, 134, 135, 136, 137, 138, 139, 140, 141, 142, 143, 144, 145, 146, 147, 148, 149, 150, 151, 152, 153, 154, 155, 156, 157, 158, 159, 160, 161, 162, 163, 164, 165, 166, 167, 168, 169, 170, 171, 172, 173, 174, 175, 176, 177, 178, 179, 180, 181, 182, 183, 184, 185, 186, 187, 188, 189, 190, 191, 192, 193, 194, 195, 196, 197, 198, 199, 200, 201, 202, 203, 204, 205, 206, 207, 208, 209, 210, 211, 212, 213, 214, 215, 216, 217, 218, 219, 220, 221],
      "LargestImagePixelValue": [2683, 3222, 3340, 3198, 1815, 2389, 1886, 1715, 2491, 1856, 2109, 2162, 1767, 1767, 1845, 2378, 2372, 1819, 2930, 2098, 1855, 2621, 3425, 1897, 2278, 1751, 2559, 1725, 2258, 1806, 1764, 2030, 2031, 2222, 1808, 2851, 1778, 1807, 2450, 1772, 2417, 1796, 1759, 2151, 2994, 3144, 1734, 2248, 1786, 1726, 2258, 1718, 2849, 1898, 2841, 1775, 2258, 1752, 1781, 1714, 2909, 3245, 2208, 1987, 1800, 2336, 1809, 2152, 2014, 1792, 1978, 2097, 2986, 1820, 1763, 2206, 1792, 2225, 1780, 1778, 1803, 2615, 2931, 1804, 2480, 3261, 1803, 2322, 1877, 2175, 2314, 2553, 2114, 1764, 1803, 2450, 1877, 1778, 1767, 1994, 1804, 2818, 1872, 2058, 1844, 1993, 2228, 1798, 2104, 1720, 2130, 1802, 2770, 1835, 2654, 1760, 2531, 1788, 2769, 1924, 2155, 1806, 2393, 1823, 2769, 1756, 2489, 2024, 1778, 2760, 2026, 3148, 1799, 2675, 1805, 2175, 1859, 1834, 1939, 2145, 1853, 1775, 2241, 1795, 1780, 2189, 1790, 2187, 1766, 1888, 2144, 2113, 2773, 2093, 1886, 2811, 2168, 1773, 2372, 1776, 2550, 1827, 1769, 2790, 1821, 1799, 2885, 1853, 1777, 2084, 1773, 2025, 2014, 1863, 2144, 2976, 1800, 1749, 2989, 1832, 1829, 1781, 1747, 2910, 2157, 1800, 1769, 1777, 2554, 2001, 1783, 2554, 1769, 2756, 1781, 1808, 1909, 2032, 1879, 2534, 1763, 1730, 2485, 3027, 1908, 2576, 1795, 1807, 2907, 2063, 2729, 3273, 2453, 3031, 1746, 1765, 1745, 2510, 1764, 1732, 2768],
      "WindowCenter": [818.0, 817.0, 815.0, 815.0, 813.0, 814.0, 814.0, 814.0, 815.0, 813.0, 814.0, 814.0, 813.0, 815.0, 815.0, 816.0, 816.0, 815.0, 817.0, 815.0, 815.0, 816.0, 816.0, 813.0, 815.0, 813.0, 814.0, 812.0, 814.0, 814.0, 814.0, 815.0, 814.0, 815.0, 814.0, 816.0, 813.0, 813.0, 815.0, 814.0, 815.0, 814.0, 815.0, 816.0, 816.0, 815.0, 813.0, 814.0, 814.0, 814.0, 816.0, 814.0, 816.0, 814.0, 815.0, 813.0, 814.0, 814.0, 814.0, 814.0, 816.0, 815.0, 814.0, 813.0, 813.0, 815.0, 814.0, 814.0, 814.0, 814.0, 814.0, 815.0, 815.0, 813.0, 813.0, 815.0, 814.0, 814.0, 813.0, 814.0, 815.0, 817.0, 816.0, 814.0, 815.0, 816.0, 813.0, 814.0, 814.0, 814.0, 814.0, 814.0, 814.0, 813.0, 814.0, 815.0, 814.0, 813.0, 813.0, 814.0, 814.0, 816.0, 814.0, 814.0, 814.0, 814.0, 814.0, 813.0, 814.0, 813.0, 814.0, 814.0, 816.0, 814.0, 816.0, 814.0, 815.0, 814.0, 816.0, 814.0, 814.0, 814.0, 816.0, 815.0, 816.0, 814.0, 816.0, 815.0, 814.0, 816.0, 815.0, 816.0, 814.0, 815.0, 814.0, 814.0, 814.0, 814.0, 814.0, 815.0, 814.0, 814.0, 815.0, 814.0, 814.0, 815.0, 813.0, 814.0, 813.0, 814.0, 815.0, 815.0, 815.0, 814.0, 814.0, 815.0, 814.0, 813.0, 814.0, 814.0, 815.0, 814.0, 814.0, 816.0, 814.0, 814.0, 816.0, 814.0, 813.0, 815.0, 814.0, 815.0, 815.0, 815.0, 815.0, 816.0, 814.0, 813.0, 816.0, 814.0, 814.0, 814.0, 814.0, 816.0, 814.0, 813.0, 814.0, 814.0, 816.0, 814.0, 814.0, 815.0, 813.0, 815.0, 813.0, 813.0, 814.0, 815.0, 814.0, 815.0, 814.0, 814.0, 815.0, 815.0, 813.0, 814.0, 814.0, 815.0, 816.0, 815.0, 816.0, 815.0, 813.0, 813.0, 811.0, 812.0, 813.0, 815.0, 813.0, 813.0, 815.0],
      "WindowWidth": [1779.0, 1777.0, 1773.0, 1772.0, 1761.0, 1768.0, 1765.0, 1764.0, 1771.0, 1763.0, 1766.0, 1766.0, 1763.0, 1767.0, 1768.0, 1773.0, 1772.0, 1768.0, 1777.0, 1770.0, 1767.0, 1773.0, 1776.0, 1763.0, 1769.0, 1763.0, 1769.0, 1759.0, 1766.0, 1764.0, 1766.0, 1769.0, 1766.0, 1768.0, 1764.0, 1774.0, 1763.0, 1762.0, 1770.0, 1766.0, 1771.0, 1765.0, 1766.0, 1771.0, 1774.0, 1773.0, 1761.0, 1767.0, 1764.0, 1764.0, 1774.0, 1765.0, 1775.0, 1765.0, 1773.0, 1763.0, 1768.0, 1765.0, 1765.0, 1764.0, 1775.0, 1774.0, 1766.0, 1763.0, 1761.0, 1770.0, 1764.0, 1766.0, 1765.0, 1763.0, 1767.0, 1768.0, 1774.0, 1762.0, 1762.0, 1769.0, 1764.0, 1768.0, 1763.0, 1765.0, 1768.0, 1776.0, 1774.0, 1764.0, 1771.0, 1775.0, 1761.0, 1769.0, 1765.0, 1768.0, 1768.0, 1769.0, 1767.0, 1763.0, 1765.0, 1771.0, 1764.0, 1762.0, 1762.0, 1766.0, 1765.0, 1774.0, 1764.0, 1766.0, 1764.0, 1765.0, 1767.0, 1762.0, 1766.0, 1761.0, 1768.0, 1766.0, 1774.0, 1765.0, 1774.0, 1764.0, 1771.0, 1765.0, 1773.0, 1765.0, 1768.0, 1765.0, 1772.0, 1767.0, 1776.0, 1765.0, 1772.0, 1769.0, 1766.0, 1775.0, 1767.0, 1775.0, 1763.0, 1772.0, 1764.0, 1767.0, 1765.0, 1764.0, 1765.0, 1769.0, 1766.0, 1765.0, 1770.0, 1764.0, 1764.0, 1768.0, 1763.0, 1768.0, 1762.0, 1766.0, 1770.0, 1768.0, 1772.0, 1767.0, 1764.0, 1771.0, 1765.0, 1761.0, 1769.0, 1763.0, 1772.0, 1765.0, 1764.0, 1774.0, 1765.0, 1764.0, 1775.0, 1765.0, 1763.0, 1768.0, 1765.0, 1768.0, 1769.0, 1767.0, 1770.0, 1775.0, 1763.0, 1763.0, 1775.0, 1764.0, 1764.0, 1765.0, 1765.0, 1775.0, 1765.0, 1762.0, 1764.0, 1765.0, 1773.0, 1767.0, 1764.0, 1772.0, 1763.0, 1772.0, 1762.0, 1761.0, 1764.0, 1769.0, 1765.0, 1770.0, 1763.0, 1764.0, 1770.0, 1772.0, 1762.0, 1768.0, 1764.0, 1766.0, 1775.0, 1768.0, 1773.0, 1773.0, 1765.0, 1768.0, 1757.0, 1759.0, 1761.0, 1771.0, 1762.0, 1762.0, 1771.0]
    },
    "slices": {}
  }
}