{
  "AcquisitionMatrixPE": 70,
  "AcquisitionNumber": 1,
  "AcquisitionTime": "16:29:56.442500",
  "BandwidthPerPixelPhaseEncode": 51.948,
  "BaseResolution": 70,
  "BodyPartExamined": "HEAD",
  "CoilCombinationMethod": "Sum of Squares",
  "ConsistencyInfo": "N4_VE11C_LATEST_20160120",
  "ConversionSoftware": "dcm2niix",
  "ConversionSoftwareVersion": "v1.0.20220720",
  "DerivedVendorReportedEchoSpacing": 0.000550001,
  "DeviceSerialNumber": "66061",
  "DwellTime": 3.3e-06,
  "EchoTime": 0.022,
  "EchoTrainLength": 35,
  "EffectiveEchoSpacing": 0.000275,
  "FlipAngle": 90,
  "HeudiconvVersion": "1.1.1",
  "ImageOrientationPatientDICOM": [0.999976, -6.14303e-05, -0.00696977, -0.00122172, 0.982935, -0.183947],
  "ImageOrientationText": "Tra>Cor(-10.6)>Sag(-0.4)",
  "ImageType": [
    "ORIGINAL",
    "PRIMARY",
    "M",
    "ND",
    "NORM",
    "MOSAIC"
],
  "ImagingFrequency": 123.255,
  "InPlanePhaseEncodingDirectionDICOM": "COL",
  "InstitutionAddress": "Street StreetNo,City/1c4204/,District,KR,ZIP",
  "InstitutionName": "SKKU",
  "InstitutionalDepartmentName": "Department",
  "MRAcquisitionType": "2D",
  "MagneticFieldStrength": 3,
  "Manufacturer": "Siemens",
  "ManufacturersModelName": "Prisma",
  "MatrixCoilMode": "GRAPPA",
  "Modality": "MR",
  "NonlinearGradientCorrection": false,
  "ParallelReductionFactorInPlane": 2,
  "PartialFourier": 1,
  "PatientPosition": "HFS",
  "PercentPhaseFOV": 100,
  "PercentSampling": 100,
  "PhaseEncodingDirection": "j-",
  "PhaseEncodingSteps": 70,
  "PhaseResolution": 1,
  "PixelBandwidth": 2165,
  "ProcedureStepDescription": "Head^PI:Others",
  "ProtocolName": "BOLD_ep2d_3x3x3_response2",
  "PulseSequenceDetails": "%SiemensSeq%\\ep2d_pace",
  "ReceiveCoilActiveElements": "HC1-7",
  "ReceiveCoilName": "HeadNeck_64",
  "ReconMatrixPE": 70,
  "RefLinesPE": 24,
  "RepetitionTime": 2,
  "SAR": 0.136682,
  "ScanOptions": "FS",
  "ScanningSequence": "EP",
  "SequenceName": "*epfid2d1_70",
  "SequenceVariant": "SK",
  "SeriesDescription": "BOLD_ep2d_3x3x3_response2",
  "SeriesNumber": 9,
  "ShimSetting": [5053, 3707, 4447, 388, -87, -47, -12, 40],
  "SliceThickness": 3,
  "SliceTiming": [0.99, 0, 1.0375, 0.0475, 1.085, 0.095, 1.1325, 0.1425, 1.18, 0.19, 1.225, 0.235, 1.2725, 0.2825, 1.32, 0.33, 1.3675, 0.3775, 1.415, 0.425, 1.4625, 0.4725, 1.5075, 0.52, 1.555, 0.565, 1.6025, 0.6125, 1.65, 0.66, 1.6975, 0.7075, 1.745, 0.755, 1.7925, 0.8025, 1.8375, 0.85, 1.885, 0.895, 1.9325, 0.9425],
  "SoftwareVersions": "syngo MR E11",
  "SpacingBetweenSlices": 3,
  "StationName": "AWP66061",
  "TaskName": "response",
  "TotalReadoutTime": 0.018975,
  "TxRefAmp": 241.82,
  "dcmmeta_affine": [
    [-2.999927043914795, -0.0036651522386819124, -0.020586390048265457, 103.92327880859375],
    [0.000184290882316418, 2.948806047439575, -0.5518540740013123, -88.94703674316406],
    [-0.020909298211336136, 0.5518419146537781, 2.9487342834472656, -69.36277770996094],
    [0.0, 0.0, 0.0, 1.0]
],
  "dcmmeta_reorient_transform": [
    [0.0, -1.0, 0.0, 69.0],
    [1.0, 0.0, 0.0, 0.0],
    [0.0, 0.0, -1.0, 41.0],
    [0.0, 0.0, 0.0, 1.0]
],
  "dcmmeta_shape": [70, 70, 42, 341],
  "dcmmeta_slice_dim": 2,
  "dcmmeta_version": 0.6,
  "global": {
    "const": {
      "AcquisitionMatrix": [70, 0, 0, 70],
      "AngioFlag": "N",
      "BitsAllocated": 16,
      "BitsStored": 12,
      "BodyPartExamined": "HEAD",
      "Columns": 490,
      "EchoNumbers": 1,
      "EchoTime": 22.0,
      "EchoTrainLength": 35,
      "FlipAngle": 90.0,
      "HighBit": 11,
      "ImageOrientationPatient": [0.99997570899732, -6.14302937e-05, -0.0069697662533, -0.0012217174191, 0.98293534618348, -0.1839473093843],
      "ImagePositionPatient": [-732.04135286594, -711.1051306082, 209.89017455602],
      "ImageType": [
        "ORIGINAL",
        "PRIMARY",
        "M",
        "ND",
        "NORM",
        "MOSAIC"
],
      "ImagedNucleus": "1H",
      "ImagingFrequency": 123.254641,
      "InPlanePhaseEncodingDirection": "COL",
      "MRAcquisitionType": "2D",
      "MagneticFieldStrength": 3.0,
      "Manufacturer": "SIEMENS",
      "ManufacturerModelName": "Prisma",
      "Modality": "MR",
      "NumberOfAverages": 1.0,
      "NumberOfPhaseEncodingSteps": 70,
      "PercentPhaseFieldOfView": 100.0,
      "PercentSampling": 100.0,
      "PerformedProcedureStepStartTime": "153033.359000",
      "PhotometricInterpretation": "MONOCHROME2",
      "PixelBandwidth": 2165.0,
      "PixelRepresentation": 0,
      "PixelSpacing": [3.0, 3.0],
      "ProtocolName": "BOLD_ep2d_3x3x3_response2",
      "RepetitionTime": 2000.0,
      "Rows": 490,
      "SAR": 0.13668157259929,
      "SamplesPerPixel": 1,
      "ScanOptions": "FS",
      "ScanningSequence": "EP",
      "SequenceName": "*epfid2d1_70",
      "SequenceVariant": "SK",
      "SeriesDescription": "BOLD_ep2d_3x3x3_response2",
      "SeriesNumber": 9,
      "SeriesTime": "163039.331000",
      "SliceLocation": 70.471328422725,
      "SliceThickness": 3.0,
      "SmallestImagePixelValue": 0,
      "SoftwareVersions": "syngo MR E11",
      "SpacingBetweenSlices": 3.0000000925854,
      "SpecificCharacterSet": "ISO_IR 100",
      "StudyID": "1",
      "StudyTime": "153033.292000",
      "TransmitCoilName": "Body",
      "VariableFlipAngleFlag": "N",
      "WindowCenterWidthExplanation": "Algo1",
      "dBdt": 0.0},
    "slices": {}
  },
  "time": {
    "samples": {
      "AcquisitionNumber": [1, 2, 3, 4, 5, 6, 7, 8, 9, 10, 11, 12, 13, 14, 15, 16, 17, 18, 19, 20, 21, 22, 23, 24, 25, 26, 27, 28, 29, 30, 31, 32, 33, 34, 35, 36, 37, 38, 39, 40, 41, 42, 43, 44, 45, 46, 47, 48, 49, 50, 51, 52, 53, 54, 55, 56, 57, 58, 59, 60, 61, 62, 63, 64, 65, 66, 67, 68, 69, 70, 71, 72, 73, 74, 75, 76, 77, 78, 79, 80, 81, 82, 83, 84, 85, 86, 87, 88, 89, 90, 91, 92, 93, 94, 95, 96, 97, 98, 99, 100, 101, 102, 103, 104, 105, 106, 107, 108, 109, 110, 111, 112, 113, 114, 115, 116, 117, 118, 119, 120, 121, 122, 123, 124, 125, 126, 127, 128, 129, 130, 131, 132, 133, 134, 135, 136, 137, 138, 139, 140, 141, 142, 143, 144, 145, 146, 147, 148, 149, 150, 151, 152, 153, 154, 155, 156, 157, 158, 159, 160, 161, 162, 163, 164, 165, 166, 167, 168, 169, 170, 171, 172, 173, 174, 175, 176, 177, 178, 179, 180, 181, 182, 183, 184, 185, 186, 187, 188, 189, 190, 191, 192, 193, 194, 195, 196, 197, 198, 199, 200, 201, 202, 203, 204, 205, 206, 207, 208, 209, 210, 211, 212, 213, 214, 215, 216, 217, 218, 219, 220, 221, 222, 223, 224, 225, 226, 227, 228, 229, 230, 231, 232, 233, 234, 235, 236, 237, 238, 239, 240, 241, 242, 243, 244, 245, 246, 247, 248, 249, 250, 251, 252, 253, 254, 255, 256, 257, 258, 259, 260, 261, 262, 263, 264, 265, 266, 267, 268, 269, 270, 271, 272, 273, 274, 275, 276, 277, 278, 279, 280, 281, 282, 283, 284, 285, 286, 287, 288, 289, 290, 291, 292, 293, 294, 295, 296, 297, 298, 299, 300, 301, 302, 303, 304, 305, 306, 307, 308, 309, 310, 311, 312, 313, 314, 315, 316, 317, 318, 319, 320, 321, 322, 323, 324, 325, 326, 327, 328, 329, 330, 331, 332, 333, 334, 335, 336, 337, 338, 339, 340, 341],
      "AcquisitionTime": ["162956.442500", "162958.442500", "163000.442500", "163002.442500", "163004.442500", "163006.442500", "163008.442500", "163010.442500", "163012.442500", "163014.442500", "163016.442500", "163018.442500", "163020.442500", "163022.442500", "163024.442500", "163026.442500", "163028.442500", "163030.442500", "163032.442500", "163034.442500", "163036.442500", "163038.442500", "163040.442500", "163042.442500", "163044.442500", "163046.442500", "163048.442500", "163050.442500", "163052.442500", "163054.442500", "163056.442500", "163058.442500", "163100.442500", "163102.442500", "163104.442500", "163106.442500", "163108.442500", "163110.442500", "163112.442500", "163114.442500", "163116.442500", "163118.442500", "163120.442500", "163122.442500", "163124.442500", "163126.442500", "163128.442500", "163130.442500", "163132.442500", "163134.442500", "163136.442500", "163138.442500", "163140.442500", "163142.442500", "163144.442500", "163146.442500", "163148.442500", "163150.442500", "163152.442500", "163154.442500", "163156.442500", "163158.442500", "163200.442500", "163202.442500", "163204.442500", "163206.442500", "163208.442500", "163210.442500", "163212.442500", "163214.442500", "163216.442500", "163218.442500", "163220.442500", "163222.442500", "163224.442500", "163226.442500", "163228.442500", "163230.442500", "163232.442500", "163234.442500", "163236.442500", "163238.442500", "163240.442500", "163242.442500", "163244.442500", "163246.442500", "163248.442500", "163250.442500", "163252.442500", "163254.442500", "163256.442500", "163258.442500", "163300.442500", "163302.442500", "163304.442500", "163306.442500", "163308.442500", "163310.442500", "163312.442500", "163314.442500", "163316.442500", "163318.442500", "163320.442500", "163322.442500", "163324.442500", "163326.442500", "163328.442500", "163330.442500", "163332.442500", "163334.442500", "163336.442500", "163338.442500", "163340.442500", "163342.442500", "163344.442500", "163346.442500", "163348.442500", "163350.442500", "163352.442500", "163354.442500", "163356.442500", "163358.442500", "163400.442500", "163402.442500", "163404.442500", "163406.442500", "163408.442500", "163410.442500", "163412.442500", "163414.442500", "163416.442500", "163418.442500", "163420.442500", "163422.442500", "163424.442500", "163426.442500", "163428.442500", "163430.442500", "163432.442500", "163434.442500", "163436.442500", "163438.442500", "163440.442500", "163442.442500", "163444.442500", "163446.442500", "163448.442500", "163450.442500", "163452.442500", "163454.442500", "163456.442500", "163458.442500", "163500.442500", "163502.442500", "163504.442500", "163506.442500", "163508.442500", "163510.442500", "163512.442500", "163514.442500", "163516.442500", "163518.442500", "163520.442500", "163522.442500", "163524.442500", "163526.442500", "163528.442500", "163530.442500", "163532.442500", "163534.442500", "163536.442500", "163538.442500", "163540.442500", "163542.442500", "163544.442500", "163546.442500", "163548.442500", "163550.442500", "163552.442500", "163554.442500", "163556.442500", "163558.442500", "163600.442500", "163602.442500", "163604.442500", "163606.442500", "163608.442500", "163610.442500", "163612.442500", "163614.442500", "163616.442500", "163618.442500", "163620.442500", "163622.442500", "163624.442500", "163626.442500", "163628.442500", "163630.442500", "163632.442500", "163634.442500", "163636.442500", "163638.442500", "163640.442500", "163642.442500", "163644.442500", "163646.442500", "163648.442500", "163650.442500", "163652.442500", "163654.442500", "163656.442500", "163658.442500", "163700.442500", "163702.442500", "163704.442500", "163706.442500", "163708.442500", "163710.442500", "163712.442500", "163714.442500", "163716.442500", "163718.442500", "163720.442500", "163722.442500", "163724.442500", "163726.442500", "163728.442500", "163730.442500", "163732.442500", "163734.442500", "163736.442500", "163738.442500", "163740.442500", "163742.442500", "163744.442500", "163746.442500", "163748.442500", "163750.442500", "163752.442500", "163754.442500", "163756.442500", "163758.442500", "163800.442500", "163802.442500", "163804.442500", "163806.442500", "163808.442500", "163810.442500", "163812.442500", "163814.442500", "163816.442500", "163818.442500", "163820.442500", "163822.442500", "163824.442500", "163826.442500", "163828.442500", "163830.442500", "163832.442500", "163834.442500", "163836.442500", "163838.442500", "163840.442500", "163842.442500", "163844.442500", "163846.442500", "163848.442500", "163850.442500", "163852.442500", "163854.442500", "163856.442500", "163858.442500", "163900.442500", "163902.442500", "163904.442500", "163906.442500", "163908.442500", "163910.442500", "163912.442500", "163914.442500", "163916.442500", "163918.442500", "163920.442500", "163922.442500", "163924.442500", "163926.442500", "163928.442500", "163930.442500", "163932.442500", "163934.442500", "163936.442500", "163938.442500", "163940.442500", "163942.442500", "163944.442500", "163946.442500", "163948.442500", "163950.442500", "163952.442500", "163954.442500", "163956.442500", "163958.442500", "164000.442500", "164002.442500", "164004.442500", "164006.442500", "164008.442500", "164010.442500", "164012.442500", "164014.442500", "164016.442500", "164018.442500", "164020.442500", "164022.442500", "164024.442500", "164026.442500", "164028.442500", "164030.442500", "164032.442500", "164034.442500", "164036.442500", "164038.442500", "164040.442500", "164042.442500", "164044.442500", "164046.442500", "164048.442500", "164050.442500", "164052.442500", "164054.442500", "164056.442500", "164058.442500", "164100.442500", "164102.442500", "164104.442500", "164106.442500", "164108.442500", "164110.442500", "164112.442500", "164114.442500", "164116.442500"],
      "ContentTime": ["163039.334000", "163039.337000", "163039.340000", "163039.343000", "163039.345000", "163039.348000", "163039.351000", "163039.353000", "163039.356000", "163039.359000", "163039.361000", "163039.364000", "163039.376000", "163039.379000", "163039.381000", "163039.384000", "163039.390000", "163039.392000", "163039.395000", "163039.397000", "163039.400000", "163119.330000", "163119.333000", "163119.342000", "163119.345000", "163119.348000", "163119.350000", "163119.353000", "163119.356000", "163119.358000", "163119.361000", "163119.363000", "163119.366000", "163119.369000", "163119.371000", "163119.374000", "163119.377000", "163119.379000", "163119.382000", "163119.384000", "163119.387000", "163159.330000", "163159.333000", "163159.336000", "163159.339000", "163159.341000", "163159.344000", "163159.347000", "163159.349000", "163159.352000", "163159.362000", "163159.364000", "163159.367000", "163159.369000", "163159.372000", "163159.375000", "163159.377000", "163159.380000", "163159.383000", "163159.385000", "163159.388000", "163239.330000", "163239.333000", "163239.336000", "163239.338000", "163239.341000", "163239.344000", "163239.346000", "163239.349000", "163239.352000", "163239.354000", "163239.357000", "163239.360000", "163239.362000", "163239.365000", "163239.367000", "163239.370000", "163239.373000", "163239.375000", "163239.378000", "163239.381000", "163319.329000", "163319.332000", "163319.335000", "163319.338000", "163319.340000", "163319.343000", "163319.345000", "163319.348000", "163319.351000", "163319.353000", "163319.356000", "163319.359000", "163319.361000", "163319.364000", "163319.367000", "163319.369000", "163319.372000", "163319.375000", "163319.377000", "163319.380000", "163359.330000", "163359.333000", "163359.335000", "163359.338000", "163359.341000", "163359.343000", "163359.346000", "163359.348000", "163359.351000", "163359.354000", "163359.356000", "163359.359000", "163359.361000", "163359.364000", "163359.367000", "163359.369000", "163359.372000", "163359.375000", "163359.377000", "163359.380000", "163439.330000", "163439.333000", "163439.336000", "163439.339000", "163439.341000", "163439.344000", "163439.346000", "163439.349000", "163439.352000", "163439.354000", "163439.357000", "163439.360000", "163439.362000", "163439.365000", "163439.373000", "163439.375000", "163439.378000", "163439.381000", "163439.383000", "163439.386000", "163519.330000", "163519.332000", "163519.335000", "163519.338000", "163519.340000", "163519.343000", "163519.346000", "163519.348000", "163519.351000", "163519.354000", "163519.356000", "163519.359000", "163519.361000", "163519.364000", "163519.367000", "163519.377000", "163519.380000", "163519.383000", "163519.385000", "163519.388000", "163559.330000", "163559.332000", "163559.335000", "163559.338000", "163559.340000", "163559.343000", "163559.346000", "163559.348000", "163559.351000", "163559.354000", "163559.356000", "163559.359000", "163559.361000", "163559.364000", "163559.367000", "163559.369000", "163559.372000", "163559.374000", "163559.377000", "163559.380000", "163639.331000", "163639.333000", "163639.336000", "163639.339000", "163639.341000", "163639.344000", "163639.347000", "163639.349000", "163639.352000", "163639.355000", "163639.357000", "163639.360000", "163639.362000", "163639.365000", "163639.368000", "163639.370000", "163639.373000", "163639.376000", "163639.378000", "163639.381000", "163719.331000", "163719.333000", "163719.336000", "163719.339000", "163719.341000", "163719.344000", "163719.347000", "163719.349000", "163719.352000", "163719.355000", "163719.357000", "163719.360000", "163719.363000", "163719.365000", "163719.368000", "163719.371000", "163719.373000", "163719.376000", "163719.378000", "163719.381000", "163759.330000", "163759.332000", "163759.335000", "163759.338000", "163759.340000", "163759.343000", "163759.346000", "163759.348000", "163759.351000", "163759.354000", "163759.356000", "163759.359000", "163759.361000", "163759.364000", "163759.367000", "163759.369000", "163759.372000", "163759.375000", "163759.377000", "163759.380000", "163839.330000", "163839.332000", "163839.335000", "163839.338000", "163839.340000", "163839.343000", "163839.346000", "163839.348000", "163839.351000", "163839.354000", "163839.356000", "163839.359000", "163839.361000", "163839.364000", "163839.367000", "163839.369000", "163839.372000", "163839.375000", "163839.377000", "163839.380000", "163859.331000", "163859.333000", "163859.336000", "163859.339000", "163859.341000", "163859.344000", "163859.347000", "163859.349000", "163859.352000", "163859.355000", "163939.331000", "163939.334000", "163939.336000", "163939.339000", "163939.342000", "163939.344000", "163939.347000", "163939.349000", "163939.352000", "163939.355000", "163939.357000", "163939.360000", "163939.363000", "163939.365000", "163939.368000", "163939.371000", "163939.373000", "163939.376000", "163939.379000", "163939.381000", "164019.330000", "164019.332000", "164019.335000", "164019.338000", "164019.340000", "164019.343000", "164019.346000", "164019.348000", "164019.351000", "164019.354000", "164019.356000", "164019.359000", "164019.361000", "164019.364000", "164019.367000", "164019.369000", "164019.372000", "164019.375000", "164019.377000", "164019.380000", "164059.330000", "164059.333000", "164059.335000", "164059.338000", "164059.341000", "164059.343000", "164059.346000", "164059.348000", "164059.351000", "164059.354000", "164059.356000", "164059.359000", "164059.362000", "164059.364000", "164059.367000", "164059.370000", "164059.372000", "164059.375000", "164059.378000", "164059.380000", "164117.723000", "164117.726000", "164117.729000", "164117.731000", "164117.734000", "164117.737000", "164117.740000", "164117.742000", "164117.745000", "164117.748000"],
      "InstanceCreationTime": ["163039.334000", "163039.337000", "163039.340000", "163039.343000", "163039.345000", "163039.348000", "163039.351000", "163039.353000", "163039.356000", "163039.359000", "163039.361000", "163039.364000", "163039.376000", "163039.379000", "163039.381000", "163039.384000", "163039.390000", "163039.392000", "163039.395000", "163039.397000", "163039.400000", "163119.330000", "163119.333000", "163119.342000", "163119.345000", "163119.348000", "163119.350000", "163119.353000", "163119.356000", "163119.358000", "163119.361000", "163119.363000", "163119.366000", "163119.369000", "163119.371000", "163119.374000", "163119.377000", "163119.379000", "163119.382000", "163119.384000", "163119.387000", "163159.330000", "163159.333000", "163159.336000", "163159.339000", "163159.341000", "163159.344000", "163159.347000", "163159.349000", "163159.352000", "163159.362000", "163159.364000", "163159.367000", "163159.369000", "163159.372000", "163159.375000", "163159.377000", "163159.380000", "163159.383000", "163159.385000", "163159.388000", "163239.330000", "163239.333000", "163239.336000", "163239.338000", "163239.341000", "163239.344000", "163239.346000", "163239.349000", "163239.352000", "163239.354000", "163239.357000", "163239.360000", "163239.362000", "163239.365000", "163239.367000", "163239.370000", "163239.373000", "163239.375000", "163239.378000", "163239.381000", "163319.329000", "163319.332000", "163319.335000", "163319.338000", "163319.340000", "163319.343000", "163319.345000", "163319.348000", "163319.351000", "163319.353000", "163319.356000", "163319.359000", "163319.361000", "163319.364000", "163319.367000", "163319.369000", "163319.372000", "163319.375000", "163319.377000", "163319.380000", "163359.330000", "163359.333000", "163359.335000", "163359.338000", "163359.341000", "163359.343000", "163359.346000", "163359.348000", "163359.351000", "163359.354000", "163359.356000", "163359.359000", "163359.361000", "163359.364000", "163359.367000", "163359.369000", "163359.372000", "163359.375000", "163359.377000", "163359.380000", "163439.330000", "163439.333000", "163439.336000", "163439.339000", "163439.341000", "163439.344000", "163439.346000", "163439.349000", "163439.352000", "163439.354000", "163439.357000", "163439.360000", "163439.362000", "163439.365000", "163439.373000", "163439.375000", "163439.378000", "163439.381000", "163439.383000", "163439.386000", "163519.330000", "163519.332000", "163519.335000", "163519.338000", "163519.340000", "163519.343000", "163519.346000", "163519.348000", "163519.351000", "163519.354000", "163519.356000", "163519.359000", "163519.361000", "163519.364000", "163519.367000", "163519.377000", "163519.380000", "163519.383000", "163519.385000", "163519.388000", "163559.330000", "163559.332000", "163559.335000", "163559.338000", "163559.340000", "163559.343000", "163559.346000", "163559.348000", "163559.351000", "163559.354000", "163559.356000", "163559.359000", "163559.361000", "163559.364000", "163559.367000", "163559.369000", "163559.372000", "163559.374000", "163559.377000", "163559.380000", "163639.331000", "163639.333000", "163639.336000", "163639.339000", "163639.341000", "163639.344000", "163639.347000", "163639.349000", "163639.352000", "163639.355000", "163639.357000", "163639.360000", "163639.362000", "163639.365000", "163639.368000", "163639.370000", "163639.373000", "163639.376000", "163639.378000", "163639.381000", "163719.331000", "163719.333000", "163719.336000", "163719.339000", "163719.341000", "163719.344000", "163719.347000", "163719.349000", "163719.352000", "163719.355000", "163719.357000", "163719.360000", "163719.363000", "163719.365000", "163719.368000", "163719.371000", "163719.373000", "163719.376000", "163719.378000", "163719.381000", "163759.330000", "163759.332000", "163759.335000", "163759.338000", "163759.340000", "163759.343000", "163759.346000", "163759.348000", "163759.351000", "163759.354000", "163759.356000", "163759.359000", "163759.361000", "163759.364000", "163759.367000", "163759.369000", "163759.372000", "163759.375000", "163759.377000", "163759.380000", "163839.330000", "163839.332000", "163839.335000", "163839.338000", "163839.340000", "163839.343000", "163839.346000", "163839.348000", "163839.351000", "163839.354000", "163839.356000", "163839.359000", "163839.361000", "163839.364000", "163839.367000", "163839.369000", "163839.372000", "163839.375000", "163839.377000", "163839.380000", "163859.331000", "163859.333000", "163859.336000", "163859.339000", "163859.341000", "163859.344000", "163859.347000", "163859.349000", "163859.352000", "163859.355000", "163939.331000", "163939.334000", "163939.336000", "163939.339000", "163939.342000", "163939.344000", "163939.347000", "163939.349000", "163939.352000", "163939.355000", "163939.357000", "163939.360000", "163939.363000", "163939.365000", "163939.368000", "163939.371000", "163939.373000", "163939.376000", "163939.379000", "163939.381000", "164019.330000", "164019.332000", "164019.335000", "164019.338000", "164019.340000", "164019.343000", "164019.346000", "164019.348000", "164019.351000", "164019.354000", "164019.356000", "164019.359000", "164019.361000", "164019.364000", "164019.367000", "164019.369000", "164019.372000", "164019.375000", "164019.377000", "164019.380000", "164059.330000", "164059.333000", "164059.335000", "164059.338000", "164059.341000", "164059.343000", "164059.346000", "164059.348000", "164059.351000", "164059.354000", "164059.356000", "164059.359000", "164059.362000", "164059.364000", "164059.367000", "164059.370000", "164059.372000", "164059.375000", "164059.378000", "164059.380000", "164117.723000", "164117.726000", "164117.729000", "164117.731000", "164117.734000", "164117.737000", "164117.740000", "164117.742000", "164117.745000", "164117.748000"],
      "InstanceNumber": [1, 2, 3, 4, 5, 6, 7, 8, 9, 10, 11, 12, 13, 14, 15, 16, 17, 18, 19, 20, 21, 22, 23, 24, 25, 26, 27, 28, 29, 30, 31, 32, 33, 34, 35, 36, 37, 38, 39, 40, 41, 42, 43, 44, 45, 46, 47, 48, 49, 50, 51, 52, 53, 54, 55, 56, 57, 58, 59, 60, 61, 62, 63, 64, 65, 66, 67, 68, 69, 70, 71, 72, 73, 74, 75, 76, 77, 78, 79, 80, 81, 82, 83, 84, 85, 86, 87, 88, 89, 90, 91, 92, 93, 94, 95, 96, 97, 98, 99, 100, 101, 102, 103, 104, 105, 106, 107, 108, 109, 110, 111, 112, 113, 114, 115, 116, 117, 118, 119, 120, 121, 122, 123, 124, 125, 126, 127, 128, 129, 130, 131, 132, 133, 134, 135, 136, 137, 138, 139, 140, 141, 142, 143, 144, 145, 146, 147, 148, 149, 150, 151, 152, 153, 154, 155, 156, 157, 158, 159, 160, 161, 162, 163, 164, 165, 166, 167, 168, 169, 170, 171, 172, 173, 174, 175, 176, 177, 178, 179, 180, 181, 182, 183, 184, 185, 186, 187, 188, 189, 190, 191, 192, 193, 194, 195, 196, 197, 198, 199, 200, 201, 202, 203, 204, 205, 206, 207, 208, 209, 210, 211, 212, 213, 214, 215, 216, 217, 218, 219, 220, 221, 222, 223, 224, 225, 226, 227, 228, 229, 230, 231, 232, 233, 234, 235, 236, 237, 238, 239, 240, 241, 242, 243, 244, 245, 246, 247, 248, 249, 250, 251, 252, 253, 254, 255, 256, 257, 258, 259, 260, 261, 262, 263, 264, 265, 266, 267, 268, 269, 270, 271, 272, 273, 274, 275, 276, 277, 278, 279, 280, 281, 282, 283, 284, 285, 286, 287, 288, 289, 290, 291, 292, 293, 294, 295, 296, 297, 298, 299, 300, 301, 302, 303, 304, 305, 306, 307, 308, 309, 310, 311, 312, 313, 314, 315, 316, 317, 318, 319, 320, 321, 322, 323, 324, 325, 326, 327, 328, 329, 330, 331, 332, 333, 334, 335, 336, 337, 338, 339, 340, 341],
      "LargestImagePixelValue": [2456, 1781, 1733, 2121, 2248, 2053, 2752, 2922, 1716, 1910, 1714, 3229, 3096, 1709, 2517, 2174, 1708, 2242, 1957, 1807, 1735, 1759, 1721, 2551, 1935, 1719, 1680, 1711, 1731, 2416, 2301, 2366, 1706, 1738, 1769, 2240, 1950, 1794, 1803, 2989, 2402, 3365, 3498, 2627, 1705, 1695, 1703, 1735, 1718, 2074, 2160, 1891, 1712, 1718, 1703, 1993, 2316, 1720, 2084, 2440, 1907, 1801, 2003, 1719, 1735, 1713, 1999, 1754, 2320, 2601, 2906, 1887, 1711, 1759, 1715, 1697, 2012, 1773, 1999, 2921, 2200, 2232, 1760, 1700, 1708, 2309, 1857, 1713, 1755, 1696, 1839, 2445, 2981, 1736, 1680, 1721, 1925, 2186, 2076, 1838, 1696, 1737, 1900, 1715, 1725, 2502, 1946, 1702, 1724, 1710, 2621, 1711, 1713, 1700, 1723, 1773, 1866, 1737, 2417, 3031, 1740, 1747, 2213, 1815, 1723, 1710, 2398, 1711, 1753, 1969, 2037, 1710, 1768, 1735, 2697, 2887, 1763, 1725, 1913, 2633, 2034, 2288, 3413, 2464, 1688, 1702, 1745, 2730, 1750, 1722, 2663, 1857, 1684, 1666, 2106, 2162, 1918, 1737, 1729, 1731, 1720, 1865, 1923, 2342, 3228, 2376, 1736, 1710, 1756, 1726, 2086, 2283, 1692, 1714, 1748, 2001, 2566, 2022, 1903, 1767, 1790, 1698, 1757, 1700, 1723, 1723, 1730, 2096, 1762, 1739, 1699, 1701, 2287, 2474, 2505, 2883, 2665, 2432, 1747, 1703, 1711, 1724, 1695, 1899, 2191, 2955, 1715, 1733, 1780, 1849, 1695, 1701, 1739, 1903, 1744, 2796, 2092, 1741, 1742, 2019, 2519, 1742, 1739, 1691, 2735, 1727, 1721, 1721, 1837, 1782, 2187, 1746, 2911, 2111, 1858, 1700, 1704, 1735, 1921, 2537, 1792, 1744, 1698, 1714, 1799, 2394, 2265, 1711, 1764, 2493, 2482, 2891, 1707, 1705, 1703, 1702, 2162, 1773, 2365, 2522, 1864, 1866, 1896, 1888, 1714, 1690, 2194, 2555, 1720, 1907, 2067, 1707, 1688, 1987, 2773, 1738, 1734, 1688, 1742, 2080, 2273, 1767, 1712, 2264, 2007, 2919, 3082, 2100, 1715, 1709, 2138, 1891, 1742, 2019, 2276, 1758, 2365, 1772, 2884, 1819, 1766, 1714, 1705, 1703, 1718, 1743, 2099, 2411, 1763, 1718, 1701, 2600, 1961, 1739, 2259, 3001, 2206, 1707, 2054, 2371, 1691, 1715, 1734, 1745, 1841, 1725, 2329, 2583, 2221, 1825, 1743, 2679, 2000, 1768, 1866, 3161, 1739, 2419, 1691, 1723, 2444],
