{
  "AcquisitionMatrixPE": 70,
  "AcquisitionNumber": 1,
  "AcquisitionTime": "09:29:11.727500",
  "BandwidthPerPixelPhaseEncode": 51.948,
  "BaseResolution": 70,
  "BodyPartExamined": "HEAD",
  "CoilCombinationMethod": "Sum of Squares",
  "ConsistencyInfo": "N4_VE11C_LATEST_20160120",
  "ConversionSoftware": "dcm2niix",
  "ConversionSoftwareVersion": "v1.0.20220720",
  "DerivedVendorReportedEchoSpacing": 0.000550001,
  "DeviceSerialNumber": "66061",
  "DwellTime": 3.3e-06,
  "EchoTime": 0.022,
  "EchoTrainLength": 35,
  "EffectiveEchoSpacing": 0.000275,
  "FlipAngle": 90,
  "HeudiconvVersion": "1.1.1",
  "ImageOrientationPatientDICOM": [0.998493, 0.0113093, 0.0537046, -0.00121991, 0.98287, -0.184295],
  "ImageOrientationText": "Tra>Cor(-10.6)>Sag(3.1)",
  "ImageType": [
    "ORIGINAL",
    "PRIMARY",
    "M",
    "ND",
    "NORM",
    "MOSAIC"
],
  "ImagingFrequency": 123.254,
  "InPlanePhaseEncodingDirectionDICOM": "COL",
  "InstitutionAddress": "Street StreetNo,City/1c4204/,District,KR,ZIP",
  "InstitutionName": "SKKU",
  "InstitutionalDepartmentName": "Department",
  "MRAcquisitionType": "2D",
  "MagneticFieldStrength": 3,
  "Manufacturer": "Siemens",
  "ManufacturersModelName": "Prisma",
  "MatrixCoilMode": "GRAPPA",
  "Modality": "MR",
  "NonlinearGradientCorrection": false,
  "ParallelReductionFactorInPlane": 2,
  "PartialFourier": 1,
  "PatientPosition": "HFS",
  "PercentPhaseFOV": 100,
  "PercentSampling": 100,
  "PhaseEncodingDirection": "j-",
  "PhaseEncodingSteps": 70,
  "PhaseResolution": 1,
  "PixelBandwidth": 2165,
  "ProcedureStepDescription": "Head^PI:Others",
  "ProtocolName": "BOLD_ep2d_3x3x3_response1",
  "PulseSequenceDetails": "%SiemensSeq%\\ep2d_pace",
  "ReceiveCoilActiveElements": "HC1-7",
  "ReceiveCoilName": "HeadNeck_64",
  "ReconMatrixPE": 70,
  "RefLinesPE": 24,
  "RepetitionTime": 2,
  "SAR": 0.162971,
  "ScanOptions": "FS",
  "ScanningSequence": "EP",
  "SequenceName": "*epfid2d1_70",
  "SequenceVariant": "SK",
  "SeriesDescription": "BOLD_ep2d_3x3x3_response1",
  "SeriesNumber": 9,
  "ShimSetting": [5071, 3739, 4475, 354, -60, 40, -17, 65],
  "SliceThickness": 3,
  "SliceTiming": [0.99, 0, 1.0375, 0.0475, 1.085, 0.095, 1.13, 0.14, 1.1775, 0.1875, 1.225, 0.235, 1.2725, 0.2825, 1.32, 0.33, 1.3675, 0.3775, 1.415, 0.425, 1.46, 0.47, 1.5075, 0.5175, 1.555, 0.565, 1.6025, 0.6125, 1.65, 0.66, 1.6975, 0.7075, 1.745, 0.755, 1.79, 0.8, 1.8375, 0.8475, 1.885, 0.895, 1.9325, 0.9425],
  "SoftwareVersions": "syngo MR E11",
  "SpacingBetweenSlices": 3,
  "StationName": "AWP66061",
  "TaskName": "response",
  "TotalReadoutTime": 0.018975,
  "TxRefAmp": 272.12,
  "dcmmeta_affine": [
    [-2.995478391647339, -0.0036597433499991894, 0.16460677981376648, 108.0642318725586],
    [-0.03392782807350159, 2.948610782623291, -0.5518540143966675, -85.93924713134766],
    [0.161113902926445, 0.5528838634490967, 2.9442081451416016, -72.06892395019531],
    [0.0, 0.0, 0.0, 1.0]
],
  "dcmmeta_reorient_transform": [
    [0.0, -1.0, 0.0, 69.0],
    [1.0, 0.0, 0.0, 0.0],
    [0.0, 0.0, -1.0, 41.0],
    [0.0, 0.0, 0.0, 1.0]
],
  "dcmmeta_shape": [70, 70, 42, 341],
  "dcmmeta_slice_dim": 2,
  "dcmmeta_version": 0.6,
  "global": {
    "const": {
      "AcquisitionMatrix": [70, 0, 0, 70],
      "AngioFlag": "N",
      "BitsAllocated": 16,
      "BitsStored": 12,
      "BodyPartExamined": "HEAD",
      "Columns": 490,
      "EchoNumbers": 1,
      "EchoTime": 22.0,
      "EchoTrainLength": 35,
      "FlipAngle": 90.0,
      "HighBit": 11,
      "ImageOrientationPatient": [0.99849282051326, 0.01130927558264, 0.05370463359221, -0.0012199144763, 0.98287028867744, -0.18429462131],
      "ImagePositionPatient": [-742.84252025574, -721.22201120241, 169.06429130215],
      "ImageType": [
        "ORIGINAL",
        "PRIMARY",
        "M",
        "ND",
        "NORM",
        "MOSAIC"
],
      "ImagedNucleus": "1H",
      "ImagingFrequency": 123.253995,
      "InPlanePhaseEncodingDirection": "COL",
      "MRAcquisitionType": "2D",
      "MagneticFieldStrength": 3.0,
      "Manufacturer": "SIEMENS",
      "ManufacturerModelName": "Prisma",
      "Modality": "MR",
      "NumberOfAverages": 1.0,
      "NumberOfPhaseEncodingSteps": 70,
      "PercentPhaseFieldOfView": 100.0,
      "PercentSampling": 100.0,
      "PerformedProcedureStepStartTime": "084154.860000",
      "PhotometricInterpretation": "MONOCHROME2",
      "PixelBandwidth": 2165.0,
      "PixelRepresentation": 0,
      "PixelSpacing": [3.0, 3.0],
      "ProtocolName": "BOLD_ep2d_3x3x3_response1",
      "RepetitionTime": 2000.0,
      "Rows": 490,
      "SAR": 0.16297098338891,
      "SamplesPerPixel": 1,
      "ScanOptions": "FS",
      "ScanningSequence": "EP",
      "SequenceName": "*epfid2d1_70",
      "SequenceVariant": "SK",
      "SeriesDescription": "BOLD_ep2d_3x3x3_response1",
      "SeriesNumber": 9,
      "SeriesTime": "093011.231000",
      "SliceLocation": 74.009371914664,
      "SliceThickness": 3.0,
      "SmallestImagePixelValue": 0,
      "SoftwareVersions": "syngo MR E11",
      "SpacingBetweenSlices": 3.0000000256613,
      "SpecificCharacterSet": "ISO_IR 100",
      "StudyID": "1",
      "StudyTime": "084154.745000",
      "TransmitCoilName": "Body",
      "VariableFlipAngleFlag": "N",
      "WindowCenterWidthExplanation": "Algo1",
      "dBdt": 0.0},
    "slices": {}
  },
  "time": {
    "samples": {
      "AcquisitionNumber": [1, 2, 3, 4, 5, 6, 7, 8, 9, 10, 11, 12, 13, 14, 15, 16, 17, 18, 19, 20, 21, 22, 23, 24, 25, 26, 27, 28, 29, 30, 31, 32, 33, 34, 35, 36, 37, 38, 39, 40, 41, 42, 43, 44, 45, 46, 47, 48, 49, 50, 51, 52, 53, 54, 55, 56, 57, 58, 59, 60, 61, 62, 63, 64, 65, 66, 67, 68, 69, 70, 71, 72, 73, 74, 75, 76, 77, 78, 79, 80, 81, 82, 83, 84, 85, 86, 87, 88, 89, 90, 91, 92, 93, 94, 95, 96, 97, 98, 99, 100, 101, 102, 103, 104, 105, 106, 107, 108, 109, 110, 111, 112, 113, 114, 115, 116, 117, 118, 119, 120, 121, 122, 123, 124, 125, 126, 127, 128, 129, 130, 131, 132, 133, 134, 135, 136, 137, 138, 139, 140, 141, 142, 143, 144, 145, 146, 147, 148, 149, 150, 151, 152, 153, 154, 155, 156, 157, 158, 159, 160, 161, 162, 163, 164, 165, 166, 167, 168, 169, 170, 171, 172, 173, 174, 175, 176, 177, 178, 179, 180, 181, 182, 183, 184, 185, 186, 187, 188, 189, 190, 191, 192, 193, 194, 195, 196, 197, 198, 199, 200, 201, 202, 203, 204, 205, 206, 207, 208, 209, 210, 211, 212, 213, 214, 215, 216, 217, 218, 219, 220, 221, 222, 223, 224, 225, 226, 227, 228, 229, 230, 231, 232, 233, 234, 235, 236, 237, 238, 239, 240, 241, 242, 243, 244, 245, 246, 247, 248, 249, 250, 251, 252, 253, 254, 255, 256, 257, 258, 259, 260, 261, 262, 263, 264, 265, 266, 267, 268, 269, 270, 271, 272, 273, 274, 275, 276, 277, 278, 279, 280, 281, 282, 283, 284, 285, 286, 287, 288, 289, 290, 291, 292, 293, 294, 295, 296, 297, 298, 299, 300, 301, 302, 303, 304, 305, 306, 307, 308, 309, 310, 311, 312, 313, 314, 315, 316, 317, 318, 319, 320, 321, 322, 323, 324, 325, 326, 327, 328, 329, 330, 331, 332, 333, 334, 335, 336, 337, 338, 339, 340, 341],
      "AcquisitionTime": ["092911.727500", "092913.727500", "092915.727500", "092917.727500", "092919.727500", "092921.727500", "092923.727500", "092925.727500", "092927.727500", "092929.727500", "092931.727500", "092933.727500", "092935.727500", "092937.727500", "092939.727500", "092941.727500", "092943.727500", "092945.727500", "092947.727500", "092949.727500", "092951.727500", "092953.727500", "092955.727500", "092957.727500", "092959.727500", "093001.727500", "093003.727500", "093005.727500", "093007.727500", "093009.727500", "093011.727500", "093013.727500", "093015.727500", "093017.727500", "093019.727500", "093021.727500", "093023.727500", "093025.727500", "093027.727500", "093029.727500", "093031.727500", "093033.727500", "093035.727500", "093037.727500", "093039.727500", "093041.727500", "093043.727500", "093045.727500", "093047.727500", "093049.727500", "093051.727500", "093053.727500", "093055.727500", "093057.727500", "093059.727500", "093101.727500", "093103.727500", "093105.727500", "093107.727500", "093109.727500", "093111.727500", "093113.727500", "093115.727500", "093117.727500", "093119.727500", "093121.727500", "093123.727500", "093125.727500", "093127.727500", "093129.727500", "093131.727500", "093133.727500", "093135.727500", "093137.727500", "093139.727500", "093141.727500", "093143.727500", "093145.727500", "093147.727500", "093149.727500", "093151.727500", "093153.727500", "093155.727500", "093157.727500", "093159.727500", "093201.727500", "093203.727500", "093205.727500", "093207.727500", "093209.727500", "093211.727500", "093213.727500", "093215.727500", "093217.727500", "093219.727500", "093221.727500", "093223.727500", "093225.727500", "093227.727500", "093229.727500", "093231.727500", "093233.727500", "093235.727500", "093237.727500", "093239.727500", "093241.727500", "093243.727500", "093245.727500", "093247.727500", "093249.727500", "093251.727500", "093253.727500", "093255.727500", "093257.727500", "093259.727500", "093301.727500", "093303.727500", "093305.727500", "093307.727500", "093309.727500", "093311.727500", "093313.727500", "093315.727500", "093317.727500", "093319.727500", "093321.727500", "093323.727500", "093325.727500", "093327.727500", "093329.727500", "093331.727500", "093333.727500", "093335.727500", "093337.727500", "093339.727500", "093341.727500", "093343.727500", "093345.727500", "093347.727500", "093349.727500", "093351.727500", "093353.727500", "093355.727500", "093357.727500", "093359.727500", "093401.727500", "093403.727500", "093405.727500", "093407.727500", "093409.727500", "093411.727500", "093413.727500", "093415.727500", "093417.727500", "093419.727500", "093421.727500", "093423.727500", "093425.727500", "093427.727500", "093429.727500", "093431.727500", "093433.727500", "093435.727500", "093437.727500", "093439.727500", "093441.727500", "093443.727500", "093445.727500", "093447.727500", "093449.727500", "093451.727500", "093453.727500", "093455.727500", "093457.727500", "093459.727500", "093501.727500", "093503.727500", "093505.727500", "093507.727500", "093509.727500", "093511.727500", "093513.727500", "093515.727500", "093517.727500", "093519.727500", "093521.727500", "093523.727500", "093525.727500", "093527.727500", "093529.727500", "093531.727500", "093533.727500", "093535.727500", "093537.727500", "093539.727500", "093541.727500", "093543.727500", "093545.727500", "093547.727500", "093549.727500", "093551.727500", "093553.727500", "093555.727500", "093557.727500", "093559.727500", "093601.727500", "093603.727500", "093605.727500", "093607.727500", "093609.727500", "093611.727500", "093613.727500", "093615.727500", "093617.727500", "093619.727500", "093621.727500", "093623.727500", "093625.727500", "093627.727500", "093629.727500", "093631.727500", "093633.727500", "093635.727500", "093637.727500", "093639.727500", "093641.727500", "093643.727500", "093645.727500", "093647.727500", "093649.727500", "093651.727500", "093653.727500", "093655.727500", "093657.727500", "093659.727500", "093701.727500", "093703.727500", "093705.727500", "093707.727500", "093709.727500", "093711.727500", "093713.727500", "093715.727500", "093717.727500", "093719.727500", "093721.727500", "093723.727500", "093725.727500", "093727.727500", "093729.727500", "093731.727500", "093733.727500", "093735.727500", "093737.727500", "093739.727500", "093741.727500", "093743.727500", "093745.727500", "093747.727500", "093749.727500", "093751.727500", "093753.727500", "093755.727500", "093757.727500", "093759.727500", "093801.727500", "093803.727500", "093805.727500", "093807.727500", "093809.727500", "093811.727500", "093813.727500", "093815.727500", "093817.727500", "093819.727500", "093821.727500", "093823.727500", "093825.727500", "093827.727500", "093829.727500", "093831.727500", "093833.727500", "093835.727500", "093837.727500", "093839.727500", "093841.727500", "093843.727500", "093845.727500", "093847.727500", "093849.727500", "093851.727500", "093853.727500", "093855.727500", "093857.727500", "093859.727500", "093901.727500", "093903.727500", "093905.727500", "093907.727500", "093909.727500", "093911.727500", "093913.727500", "093915.727500", "093917.727500", "093919.727500", "093921.727500", "093923.727500", "093925.727500", "093927.727500", "093929.727500", "093931.727500", "093933.727500", "093935.727500", "093937.727500", "093939.727500", "093941.727500", "093943.727500", "093945.727500", "093947.727500", "093949.727500", "093951.727500", "093953.727500", "093955.727500", "093957.727500", "093959.727500", "094001.727500", "094003.727500", "094005.727500", "094007.727500", "094009.727500", "094011.727500", "094013.727500", "094015.727500", "094017.727500", "094019.727500", "094021.727500", "094023.727500", "094025.727500", "094027.727500", "094029.727500", "094031.727500"],
      "ContentTime": ["093011.234000", "093011.238000", "093011.247000", "093011.249000", "093011.252000", "093011.255000", "093011.257000", "093011.260000", "093011.263000", "093011.265000", "093011.268000", "093011.271000", "093011.273000", "093011.276000", "093011.279000", "093011.281000", "093011.284000", "093011.294000", "093011.297000", "093011.300000", "093011.309000", "093011.312000", "093011.314000", "093011.317000", "093011.320000", "093011.323000", "093011.325000", "093011.328000", "093011.331000", "093051.230000", "093051.233000", "093051.235000", "093051.238000", "093051.241000", "093051.244000", "093051.246000", "093051.257000", "093051.260000", "093051.263000", "093051.265000", "093051.268000", "093051.271000", "093051.273000", "093051.276000", "093051.279000", "093051.281000", "093051.284000", "093051.287000", "093051.289000", "093131.230000", "093131.232000", "093131.235000", "093131.238000", "093131.240000", "093131.243000", "093131.256000", "093131.259000", "093131.262000", "093131.264000", "093131.267000", "093131.270000", "093131.272000", "093131.275000", "093131.278000", "093131.280000", "093131.283000", "093131.286000", "093131.288000", "093131.291000", "093211.230000", "093211.233000", "093211.235000", "093211.238000", "093211.241000", "093211.243000", "093211.246000", "093211.249000", "093211.251000", "093211.254000", "093211.257000", "093211.259000", "093211.262000", "093211.264000", "093211.267000", "093211.270000", "093211.272000", "093211.282000", "093211.285000", "093211.288000", "093251.230000", "093251.233000", "093251.235000", "093251.238000", "093251.241000", "093251.243000", "093251.246000", "093251.249000", "093251.251000", "093251.254000", "093251.257000", "093251.259000", "093251.262000", "093251.265000", "093251.267000", "093251.270000", "093251.273000", "093251.275000", "093251.278000", "093251.281000", "093331.230000", "093331.233000", "093331.235000", "093331.238000", "093331.241000", "093331.243000", "093331.246000", "093331.249000", "093331.251000", "093331.254000", "093331.257000", "093331.259000", "093331.262000", "093331.265000", "093331.267000", "093331.270000", "093331.273000", "093331.275000", "093331.278000", "093331.281000", "093411.230000", "093411.232000", "093411.235000", "093411.238000", "093411.241000", "093411.243000", "093411.246000", "093411.249000", "093411.251000", "093411.254000", "093411.257000", "093411.259000", "093411.262000", "093411.265000", "093411.267000", "093411.270000", "093411.272000", "093411.275000", "093411.278000", "093411.280000", "093451.230000", "093451.233000", "093451.235000", "093451.238000", "093451.241000", "093451.243000", "093451.246000", "093451.249000", "093451.251000", "093451.254000", "093451.257000", "093451.259000", "093451.262000", "093451.265000", "093451.267000", "093451.270000", "093451.273000", "093451.275000", "093451.278000", "093451.281000", "093531.230000", "093531.244000", "093531.247000", "093531.249000", "093531.252000", "093531.255000", "093531.257000", "093531.260000", "093531.263000", "093531.265000", "093531.268000", "093531.271000", "093531.273000", "093531.276000", "093531.279000", "093531.281000", "093531.284000", "093531.286000", "093531.289000", "093531.292000", "093551.230000", "093551.233000", "093551.235000", "093551.238000", "093551.241000", "093551.243000", "093551.246000", "093551.249000", "093551.251000", "093551.254000", "093631.230000", "093631.233000", "093631.235000", "093631.238000", "093631.241000", "093631.243000", "093631.246000", "093631.249000", "093631.251000", "093631.254000", "093631.257000", "093631.259000", "093631.262000", "093631.265000", "093631.267000", "093631.270000", "093631.273000", "093631.275000", "093631.278000", "093631.281000", "093711.230000", "093711.233000", "093711.235000", "093711.238000", "093711.241000", "093711.243000", "093711.246000", "093711.249000", "093711.251000", "093711.254000", "093711.257000", "093711.259000", "093711.262000", "093711.265000", "093711.267000", "093711.270000", "093711.273000", "093711.275000", "093711.278000", "093711.281000", "093751.230000", "093751.233000", "093751.235000", "093751.238000", "093751.240000", "093751.243000", "093751.246000", "093751.249000", "093751.251000", "093751.254000", "093751.256000", "093751.259000", "093751.262000", "093751.264000", "093751.267000", "093751.270000", "093751.273000", "093751.275000", "093751.278000", "093751.280000", "093831.230000", "093831.233000", "093831.235000", "093831.238000", "093831.241000", "093831.243000", "093831.246000", "093831.249000", "093831.251000", "093831.254000", "093831.257000", "093831.259000", "093831.262000", "093831.270000", "093831.273000", "093831.275000", "093831.278000", "093831.281000", "093831.283000", "093831.286000", "093911.230000", "093911.233000", "093911.235000", "093911.238000", "093911.241000", "093911.243000", "093911.246000", "093911.249000", "093911.251000", "093911.254000", "093911.257000", "093911.259000", "093911.262000", "093911.265000", "093911.267000", "093911.270000", "093911.273000", "093911.275000", "093911.278000", "093911.280000", "093951.230000", "093951.233000", "093951.235000", "093951.238000", "093951.241000", "093951.243000", "093951.246000", "093951.249000", "093951.251000", "093951.254000", "093951.257000", "093951.259000", "093951.262000", "093951.265000", "093951.267000", "093951.270000", "093951.273000", "093951.275000", "093951.278000", "093951.281000", "094031.230000", "094031.233000", "094031.236000", "094031.239000", "094031.241000", "094031.244000", "094031.247000", "094031.250000", "094031.252000", "094031.255000", "094031.258000", "094031.260000", "094031.263000", "094031.266000", "094031.268000", "094031.271000", "094031.274000", "094031.276000", "094031.279000", "094031.282000", "094033.328000", "094033.331000"],
      "DataSetTrailingPadding": [
        "\u0000\u0000\u0000\u0000\u0000\u0000\u0000\u0000\u0000\u0000\u0000\u0000\u0000\u0000\u0000\u0000\u0000\u0000\u0000\u0000\u0000\u0000\u0000\u0000\u0000\u0000\u0000\u0000\u0000\u0000\u0000\u0000\u0000\u0000\u0000\u0000\u0000\u0000\u0000\u0000\u0000\u0000\u0000\u0000\u0000\u0000\u0000\u0000\u0000\u0000\u0000\u0000\u0000\u0000",
        "\u0000\u0000\u0000\u0000\u0000\u0000\u0000\u0000\u0000\u0000\u0000\u0000\u0000\u0000\u0000\u0000\u0000\u0000\u0000\u0000\u0000\u0000\u0000\u0000\u0000\u0000\u0000\u0000\u0000\u0000\u0000\u0000\u0000\u0000\u0000\u0000\u0000\u0000\u0000\u0000\u0000\u0000\u0000\u0000\u0000\u0000\u0000\u0000\u0000\u0000\u0000\u0000",
        "\u0000\u0000\u0000\u0000\u0000\u0000\u0000\u0000\u0000\u0000\u0000\u0000\u0000\u0000\u0000\u0000\u0000\u0000\u0000\u0000\u0000\u0000\u0000\u0000\u0000\u0000\u0000\u0000\u0000\u0000\u0000\u0000\u0000\u0000\u0000\u0000\u0000\u0000\u0000\u0000\u0000\u0000\u0000\u0000\u0000\u0000\u0000\u0000\u0000\u0000\u0000\u0000",
        "\u0000\u0000\u0000\u0000\u0000\u0000\u0000\u0000\u0000\u0000\u0000\u0000\u0000\u0000\u0000\u0000\u0000\u0000\u0000\u0000\u0000\u0000\u0000\u0000\u0000\u0000\u0000\u0000\u0000\u0000\u0000\u0000\u0000\u0000\u0000\u0000\u0000\u0000\u0000\u0000\u0000\u0000\u0000\u0000\u0000\u0000\u0000\u0000\u0000\u0000\u0000\u0000",
        "\u0000\u0000\u0000\u0000\u0000\u0000\u0000\u0000\u0000\u0000\u0000\u0000\u0000\u0000\u0000\u0000\u0000\u0000\u0000\u0000\u0000\u0000\u0000\u0000\u0000\u0000\u0000\u0000\u0000\u0000\u0000\u0000\u0000\u0000\u0000\u0000\u0000\u0000\u0000\u0000\u0000\u0000\u0000\u0000\u0000\u0000\u0000\u0000\u0000\u0000",
        "\u0000\u0000\u0000\u0000\u0000\u0000\u0000\u0000\u0000\u0000\u0000\u0000\u0000\u0000\u0000\u0000\u0000\u0000\u0000\u0000\u0000\u0000\u0000\u0000\u0000\u0000\u0000\u0000\u0000\u0000\u0000\u0000\u0000\u0000\u0000\u0000\u0000\u0000\u0000\u0000\u0000\u0000\u0000\u0000\u0000\u0000\u0000\u0000\u0000\u0000",
        "\u0000\u0000\u0000\u0000\u0000\u0000\u0000\u0000\u0000\u0000\u0000\u0000\u0000\u0000\u0000\u0000\u0000\u0000\u0000\u0000\u0000\u0000\u0000\u0000\u0000\u0000\u0000\u0000\u0000\u0000\u0000\u0000\u0000\u0000\u0000\u0000\u0000\u0000\u0000\u0000\u0000\u0000\u0000\u0000\u0000\u0000\u0000\u0000\u0000\u0000",
        "\u0000\u0000\u0000\u0000\u0000\u0000\u0000\u0000\u0000\u0000\u0000\u0000\u0000\u0000\u0000\u0000\u0000\u0000\u0000\u0000\u0000\u0000\u0000\u0000\u0000\u0000\u0000\u0000\u0000\u0000\u0000\u0000\u0000\u0000\u0000\u0000\u0000\u0000\u0000\u0000\u0000\u0000\u0000\u0000\u0000\u0000\u0000\u0000\u0000\u0000",
        "\u0000\u0000\u0000\u0000\u0000\u0000\u0000\u0000\u0000\u0000\u0000\u0000\u0000\u0000\u0000\u0000\u0000\u0000\u0000\u0000\u0000\u0000\u0000\u0000\u0000\u0000\u0000\u0000\u0000\u0000\u0000\u0000\u0000\u0000\u0000\u0000\u0000\u0000\u0000\u0000\u0000\u0000\u0000\u0000\u0000\u0000\u0000\u0000\u0000\u0000",
        "\u0000\u0000\u0000\u0000\u0000\u0000\u0000\u0000\u0000\u0000\u0000\u0000\u0000\u0000\u0000\u0000\u0000\u0000\u0000\u0000\u0000\u0000\u0000\u0000\u0000\u0000\u0000\u0000\u0000\u0000\u0000\u0000\u0000\u0000\u0000\u0000\u0000\u0000\u0000\u0000\u0000\u0000\u0000\u0000\u0000\u0000\u0000\u0000\u0000\u0000",
        "\u0000\u0000\u0000\u0000\u0000\u0000\u0000\u0000\u0000\u0000\u0000\u0000\u0000\u0000\u0000\u0000\u0000\u0000\u0000\u0000\u0000\u0000\u0000\u0000\u0000\u0000\u0000\u0000\u0000\u0000\u0000\u0000\u0000\u0000\u0000\u0000\u0000\u0000\u0000\u0000\u0000\u0000\u0000\u0000\u0000\u0000\u0000\u0000\u0000\u0000",
        "\u0000\u0000\u0000\u0000\u0000\u0000\u0000\u0000\u0000\u0000\u0000\u0000\u0000\u0000\u0000\u0000\u0000\u0000\u0000\u0000\u0000\u0000\u0000\u0000\u0000\u0000\u0000\u0000\u0000\u0000\u0000\u0000\u0000\u0000\u0000\u0000\u0000\u0000\u0000\u0000\u0000\u0000\u0000\u0000\u0000\u0000\u0000\u0000\u0000\u0000",
        "\u0000\u0000\u0000\u0000\u0000\u0000\u0000\u0000\u0000\u0000\u0000\u0000\u0000\u0000\u0000\u0000\u0000\u0000\u0000\u0000\u0000\u0000\u0000\u0000\u0000\u0000\u0000\u0000\u0000\u0000\u0000\u0000\u0000\u0000\u0000\u0000\u0000\u0000\u0000\u0000\u0000\u0000\u0000\u0000\u0000\u0000\u0000\u0000\u0000\u0000",
        "\u0000\u0000\u0000\u0000\u0000\u0000\u0000\u0000\u0000\u0000\u0000\u0000\u0000\u0000\u0000\u0000\u0000\u0000\u0000\u0000\u0000\u0000\u0000\u0000\u0000\u0000\u0000\u0000\u0000\u0000\u0000\u0000\u0000\u0000\u0000\u0000\u0000\u0000\u0000\u0000\u0000\u0000\u0000\u0000\u0000\u0000\u0000\u0000\u0000\u0000",
        "\u0000\u0000\u0000\u0000\u0000\u0000\u0000\u0000\u0000\u0000\u0000\u0000\u0000\u0000\u0000\u0000\u0000\u0000\u0000\u0000\u0000\u0000\u0000\u0000\u0000\u0000\u0000\u0000\u0000\u0000\u0000\u0000\u0000\u0000\u0000\u0000\u0000\u0000\u0000\u0000\u0000\u0000\u0000\u0000\u0000\u0000\u0000\u0000\u0000\u0000",
        "\u0000\u0000\u0000\u0000\u0000\u0000\u0000\u0000\u0000\u0000\u0000\u0000\u0000\u0000\u0000\u0000\u0000\u0000\u0000\u0000\u0000\u0000\u0000\u0000\u0000\u0000\u0000\u0000\u0000\u0000\u0000\u0000\u0000\u0000\u0000\u0000\u0000\u0000\u0000\u0000\u0000\u0000\u0000\u0000\u0000\u0000\u0000\u0000\u0000\u0000",
        "\u0000\u0000\u0000\u0000\u0000\u0000\u0000\u0000\u0000\u0000\u0000\u0000\u0000\u0000\u0000\u0000\u0000\u0000\u0000\u0000\u0000\u0000\u0000\u0000\u0000\u0000\u0000\u0000\u0000\u0000\u0000\u0000\u0000\u0000\u0000\u0000\u0000\u0000\u0000\u0000\u0000\u0000\u0000\u0000\u0000\u0000\u0000\u0000\u0000\u0000",
        "\u0000\u0000\u0000\u0000\u0000\u0000\u0000\u0000\u0000\u0000\u0000\u0000\u0000\u0000\u0000\u0000\u0000\u0000\u0000\u0000\u0000\u0000\u0000\u0000\u0000\u0000\u0000\u0000\u0000\u0000\u0000\u0000\u0000\u0000\u0000\u0000\u0000\u0000\u0000\u0000\u0000\u0000\u0000\u0000\u0000\u0000\u0000\u0000\u0000\u0000",
        "\u0000\u0000\u0000\u0000\u0000\u0000\u0000\u0000\u0000\u0000\u0000\u0000\u0000\u0000\u0000\u0000\u0000\u0000\u0000\u0000\u0000\u0000\u0000\u0000\u0000\u0000\u0000\u0000\u0000\u0000\u0000\u0000\u0000\u0000\u0000\u0000\u0000\u0000\u0000\u0000\u0000\u0000\u0000\u0000\u0000\u0000\u0000\u0000\u0000\u0000",
        "\u0000\u0000\u0000\u0000\u0000\u0000\u0000\u0000\u0000\u0000\u0000\u0000\u0000\u0000\u0000\u0000\u0000\u0000\u0000\u0000\u0000\u0000\u0000\u0000\u0000\u0000\u0000\u0000\u0000\u0000\u0000\u0000\u0000\u0000\u0000\u0000\u0000\u0000\u0000\u0000\u0000\u0000\u0000\u0000\u0000\u0000\u0000\u0000\u0000\u0000",
        "\u0000\u0000\u0000\u0000\u0000\u0000\u0000\u0000\u0000\u0000\u0000\u0000\u0000\u0000\u0000\u0000\u0000\u0000\u0000\u0000\u0000\u0000\u0000\u0000\u0000\u0000\u0000\u0000\u0000\u0000\u0000\u0000\u0000\u0000\u0000\u0000\u0000\u0000\u0000\u0000\u0000\u0000\u0000\u0000\u0000\u0000\u0000\u0000\u0000\u0000",
        "\u0000\u0000\u0000\u0000\u0000\u0000\u0000\u0000\u0000\u0000\u0000\u0000\u0000\u0000\u0000\u0000\u0000\u0000\u0000\u0000\u0000\u0000\u0000\u0000\u0000\u0000\u0000\u0000\u0000\u0000\u0000\u0000\u0000\u0000\u0000\u0000\u0000\u0000\u0000\u0000\u0000\u0000\u0000\u0000\u0000\u0000\u0000\u0000\u0000\u0000",
        "\u0000\u0000\u0000\u0000\u0000\u0000\u0000\u0000\u0000\u0000\u0000\u0000\u0000\u0000\u0000\u0000\u0000\u0000\u0000\u0000\u0000\u0000\u0000\u0000\u0000\u0000\u0000\u0000\u0000\u0000\u0000\u0000\u0000\u0000\u0000\u0000\u0000\u0000\u0000\u0000\u0000\u0000\u0000\u0000\u0000\u0000\u0000\u0000\u0000\u0000",
        "\u0000\u0000\u0000\u0000\u0000\u0000\u0000\u0000\u0000\u0000\u0000\u0000\u0000\u0000\u0000\u0000\u0000\u0000\u0000\u0000\u0000\u0000\u0000\u0000\u0000\u0000\u0000\u0000\u0000\u0000\u0000\u0000\u0000\u0000\u0000\u0000\u0000\u0000\u0000\u0000\u0000\u0000\u0000\u0000\u0000\u0000\u0000\u0000\u0000\u0000",
        "\u0000\u0000\u0000\u0000\u0000\u0000\u0000\u0000\u0000\u0000\u0000\u0000\u0000\u0000\u0000\u0000\u0000\u0000\u0000\u0000\u0000\u0000\u0000\u0000\u0000\u0000\u0000\u0000\u0000\u0000\u0000\u0000\u0000\u0000\u0000\u0000\u0000\u0000\u0000\u0000\u0000\u0000\u0000\u0000\u0000\u0000\u0000\u0000\u0000\u0000",
        "\u0000\u0000\u0000\u0000\u0000\u0000\u0000\u0000\u0000\u0000\u0000\u0000\u0000\u0000\u0000\u0000\u0000\u0000\u0000\u0000\u0000\u0000\u0000\u0000\u0000\u0000\u0000\u0000\u0000\u0000\u0000\u0000\u0000\u0000\u0000\u0000\u0000\u0000\u0000\u0000\u0000\u0000\u0000\u0000\u0000\u0000\u0000\u0000\u0000\u0000",
        "\u0000\u0000\u0000\u0000\u0000\u0000\u0000\u0000\u0000\u0000\u0000\u0000\u0000\u0000\u0000\u0000\u0000\u0000\u0000\u0000\u0000\u0000\u0000\u0000\u0000\u0000\u0000\u0000\u0000\u0000\u0000\u0000\u0000\u0000\u0000\u0000\u0000\u0000\u0000\u0000\u0000\u0000\u0000\u0000\u0000\u0000\u0000\u0000\u0000\u0000",
        "\u0000\u0000\u0000\u0000\u0000\u0000\u0000\u0000\u0000\u0000\u0000\u0000\u0000\u0000\u0000\u0000\u0000\u0000\u0000\u0000\u0000\u0000\u0000\u0000\u0000\u0000\u0000\u0000\u0000\u0000\u0000\u0000\u0000\u0000\u0000\u0000\u0000\u0000\u0000\u0000\u0000\u0000\u0000\u0000\u0000\u0000\u0000\u0000\u0000\u0000",
        "\u0000\u0000\u0000\u0000\u0000\u0000\u0000\u0000\u0000\u0000\u0000\u0000\u0000\u0000\u0000\u0000\u0000\u0000\u0000\u0000\u0000\u0000\u0000\u0000\u0000\u0000\u0000\u0000\u0000\u0000\u0000\u0000\u0000\u0000\u0000\u0000\u0000\u0000\u0000\u0000\u0000\u0000\u0000\u0000\u0000\u0000\u0000\u0000\u0000\u0000",
        "\u0000\u0000\u0000\u0000\u0000\u0000\u0000\u0000\u0000\u0000\u0000\u0000\u0000\u0000\u0000\u0000\u0000\u0000\u0000\u0000\u0000\u0000\u0000\u0000\u0000\u0000\u0000\u0000\u0000\u0000\u0000\u0000\u0000\u0000\u0000\u0000\u0000\u0000\u0000\u0000\u0000\u0000\u0000\u0000\u0000\u0000\u0000\u0000\u0000\u0000",
        "\u0000\u0000\u0000\u0000\u0000\u0000\u0000\u0000\u0000\u0000\u0000\u0000\u0000\u0000\u0000\u0000\u0000\u0000\u0000\u0000\u0000\u0000\u0000\u0000\u0000\u0000\u0000\u0000\u0000\u0000\u0000\u0000\u0000\u0000\u0000\u0000\u0000\u0000\u0000\u0000\u0000\u0000\u0000\u0000\u0000\u0000\u0000\u0000\u0000\u0000",
        "\u0000\u0000\u0000\u0000\u0000\u0000\u0000\u0000\u0000\u0000\u0000\u0000\u0000\u0000\u0000\u0000\u0000\u0000\u0000\u0000\u0000\u0000\u0000\u0000\u0000\u0000\u0000\u0000\u0000\u0000\u0000\u0000\u0000\u0000\u0000\u0000\u0000\u0000\u0000\u0000\u0000\u0000\u0000\u0000\u0000\u0000\u0000\u0000\u0000\u0000",
        "\u0000\u0000\u0000\u0000\u0000\u0000\u0000\u0000\u0000\u0000\u0000\u0000\u0000\u0000\u0000\u0000\u0000\u0000\u0000\u0000\u0000\u0000\u0000\u0000\u0000\u0000\u0000\u0000\u0000\u0000\u0000\u0000\u0000\u0000\u0000\u0000\u0000\u0000\u0000\u0000\u0000\u0000\u0000\u0000\u0000\u0000\u0000\u0000\u0000\u0000",
        "\u0000\u0000\u0000\u0000\u0000\u0000\u0000\u0000\u0000\u0000\u0000\u0000\u0000\u0000\u0000\u0000\u0000\u0000\u0000\u0000\u0000\u0000\u0000\u0000\u0000\u0000\u0000\u0000\u0000\u0000\u0000\u0000\u0000\u0000\u0000\u0000\u0000\u0000\u0000\u0000\u0000\u0000\u0000\u0000\u0000\u0000\u0000\u0000\u0000\u0000",
        "\u0000\u0000\u0000\u0000\u0000\u0000\u0000\u0000\u0000\u0000\u0000\u0000\u0000\u0000\u0000\u0000\u0000\u0000\u0000\u0000\u0000\u0000\u0000\u0000\u0000\u0000\u0000\u0000\u0000\u0000\u0000\u0000\u0000\u0000\u0000\u0000\u0000\u0000\u0000\u0000\u0000\u0000\u0000\u0000\u0000\u0000\u0000\u0000\u0000\u0000",
        "\u0000\u0000\u0000\u0000\u0000\u0000\u0000\u0000\u0000\u0000\u0000\u0000\u0000\u0000\u0000\u0000\u0000\u0000\u0000\u0000\u0000\u0000\u0000\u0000\u0000\u0000\u0000\u0000\u0000\u0000\u0000\u0000\u0000\u0000\u0000\u0000\u0000\u0000\u0000\u0000\u0000\u0000\u0000\u0000\u0000\u0000\u0000\u0000\u0000\u0000",
