{
  "AcquisitionMatrixPE": 70,
  "AcquisitionNumber": 1,
  "AcquisitionTime": "09:48:19.920000",
  "BandwidthPerPixelPhaseEncode": 51.948,
  "BaseResolution": 70,
  "BodyPartExamined": "HEAD",
  "CoilCombinationMethod": "Sum of Squares",
  "ConsistencyInfo": "N4_VE11C_LATEST_20160120",
  "ConversionSoftware": "dcm2niix",
  "ConversionSoftwareVersion": "v1.0.20220720",
  "DerivedVendorReportedEchoSpacing": 0.000550001,
  "DeviceSerialNumber": "66061",
  "DwellTime": 3.3e-06,
  "EchoTime": 0.022,
  "EchoTrainLength": 35,
  "EffectiveEchoSpacing": 0.000275,
  "FlipAngle": 90,
  "HeudiconvVersion": "1.1.1",
  "ImageOrientationPatientDICOM": [0.998197, 0.0138948, 0.0583886, -0.00121956, 0.977328, -0.211727],
  "ImageOrientationText": "Tra>Cor(-12.2)>Sag(3.4)",
  "ImageType": [
    "ORIGINAL",
    "PRIMARY",
    "M",
    "ND",
    "NORM",
    "MOSAIC"
],
  "ImagingFrequency": 123.254,
  "InPlanePhaseEncodingDirectionDICOM": "COL",
  "InstitutionAddress": "Street StreetNo,City/1c4204/,District,KR,ZIP",
  "InstitutionName": "SKKU",
  "InstitutionalDepartmentName": "Department",
  "MRAcquisitionType": "2D",
  "MagneticFieldStrength": 3,
  "Manufacturer": "Siemens",
  "ManufacturersModelName": "Prisma",
  "MatrixCoilMode": "GRAPPA",
  "Modality": "MR",
  "NonlinearGradientCorrection": false,
  "ParallelReductionFactorInPlane": 2,
  "PartialFourier": 1,
  "PatientPosition": "HFS",
  "PercentPhaseFOV": 100,
  "PercentSampling": 100,
  "PhaseEncodingDirection": "j-",
  "PhaseEncodingSteps": 70,
  "PhaseResolution": 1,
  "PixelBandwidth": 2165,
  "ProcedureStepDescription": "Head^PI:Others",
  "ProtocolName": "BOLD_ep2d_3x3x3_dimension2",
  "PulseSequenceDetails": "%SiemensSeq%\\ep2d_pace",
  "ReceiveCoilActiveElements": "HC1-7;NC1",
  "ReceiveCoilName": "HeadNeck_64",
  "ReconMatrixPE": 70,
  "RefLinesPE": 24,
  "RepetitionTime": 2,
  "SAR": 0.144862,
  "ScanOptions": "FS",
  "ScanningSequence": "EP",
  "SequenceName": "*epfid2d1_70",
  "SequenceVariant": "SK",
  "SeriesDescription": "BOLD_ep2d_3x3x3_dimension2",
  "SeriesNumber": 9,
  "ShimSetting": [5067, 3758, 4454, 373, -80, 1, -26, 42],
  "SliceThickness": 3,
  "SliceTiming": [0.99, 0, 1.0375, 0.0475, 1.085, 0.095, 1.1325, 0.1425, 1.18, 0.19, 1.225, 0.235, 1.2725, 0.2825, 1.32, 0.33, 1.3675, 0.3775, 1.415, 0.425, 1.4625, 0.4725, 1.51, 0.52, 1.555, 0.565, 1.6025, 0.6125, 1.65, 0.66, 1.6975, 0.7075, 1.745, 0.755, 1.7925, 0.8025, 1.84, 0.85, 1.885, 0.895, 1.9325, 0.9425],
  "SoftwareVersions": "syngo MR E11",
  "SpacingBetweenSlices": 3,
  "StationName": "AWP66061",
  "TaskName": "dimension",
  "TotalReadoutTime": 0.018975,
  "TxRefAmp": 259.847,
  "dcmmeta_affine": [
    [-2.99459171295166, -0.0036586837377399206, 0.1800203174352646, 108.29607391357422],
    [-0.04168442264199257, 2.9319846630096436, -0.6338207721710205, -81.001953125],
    [0.17516595125198364, 0.6351795196533203, 2.9267497062683105, -79.22110748291016],
    [0.0, 0.0, 0.0, 1.0]
],
  "dcmmeta_reorient_transform": [
    [0.0, -1.0, 0.0, 69.0],
    [1.0, 0.0, 0.0, 0.0],
    [0.0, 0.0, -1.0, 41.0],
    [0.0, 0.0, 0.0, 1.0]
],
  "dcmmeta_shape": [70, 70, 42, 437],
  "dcmmeta_slice_dim": 2,
  "dcmmeta_version": 0.6,
  "global": {
    "const": {
      "AcquisitionMatrix": [70, 0, 0, 70],
      "AngioFlag": "N",
      "BitsAllocated": 16,
      "BitsStored": 12,
      "BodyPartExamined": "HEAD",
      "Columns": 490,
      "EchoNumbers": 1,
      "EchoTime": 22.0,
      "EchoTrainLength": 35,
      "FlipAngle": 90.0,
      "HighBit": 11,
      "ImageOrientationPatient": [0.9981972250566, 0.01389480727215, 0.0583886480421, -0.0012195612485, 0.97732819495722, -0.2117265028569],
      "ImagePositionPatient": [-743.52038225348, -719.78882534739, 181.20586387727],
      "ImageType": [
        "ORIGINAL",
        "PRIMARY",
        "M",
        "ND",
        "NORM",
        "MOSAIC"
],
      "ImagedNucleus": "1H",
      "ImagingFrequency": 123.254396,
      "InPlanePhaseEncodingDirection": "COL",
      "MRAcquisitionType": "2D",
      "MagneticFieldStrength": 3.0,
      "Manufacturer": "SIEMENS",
      "ManufacturerModelName": "Prisma",
      "Modality": "MR",
      "NumberOfAverages": 1.0,
      "NumberOfPhaseEncodingSteps": 70,
      "PercentPhaseFieldOfView": 100.0,
      "PercentSampling": 100.0,
      "PerformedProcedureStepStartTime": "084615.606000",
      "PhotometricInterpretation": "MONOCHROME2",
      "PixelBandwidth": 2165.0,
      "PixelRepresentation": 0,
      "PixelSpacing": [3.0, 3.0],
      "ProtocolName": "BOLD_ep2d_3x3x3_dimension2",
      "RepetitionTime": 2000.0,
      "Rows": 490,
      "SAR": 0.14486195335773,
      "SamplesPerPixel": 1,
      "ScanOptions": "FS",
      "ScanningSequence": "EP",
      "SequenceName": "*epfid2d1_70",
      "SequenceVariant": "SK",
      "SeriesDescription": "BOLD_ep2d_3x3x3_dimension2",
      "SeriesNumber": 9,
      "SeriesTime": "094915.300000",
      "SliceLocation": 69.325284937085,
      "SliceThickness": 3.0,
      "SmallestImagePixelValue": 0,
      "SoftwareVersions": "syngo MR E11",
      "SpacingBetweenSlices": 3.0000000065755,
      "SpecificCharacterSet": "ISO_IR 100",
      "StudyID": "1",
      "StudyTime": "084615.516000",
      "TransmitCoilName": "Body",
      "VariableFlipAngleFlag": "N",
      "WindowCenterWidthExplanation": "Algo1",
      "dBdt": 0.0},
    "slices": {}
  },
  "time": {
    "samples": {
      "AcquisitionNumber": [1, 2, 3, 4, 5, 6, 7, 8, 9, 10, 11, 12, 13, 14, 15, 16, 17, 18, 19, 20, 21, 22, 23, 24, 25, 26, 27, 28, 29, 30, 31, 32, 33, 34, 35, 36, 37, 38, 39, 40, 41, 42, 43, 44, 45, 46, 47, 48, 49, 50, 51, 52, 53, 54, 55, 56, 57, 58, 59, 60, 61, 62, 63, 64, 65, 66, 67, 68, 69, 70, 71, 72, 73, 74, 75, 76, 77, 78, 79, 80, 81, 82, 83, 84, 85, 86, 87, 88, 89, 90, 91, 92, 93, 94, 95, 96, 97, 98, 99, 100, 101, 102, 103, 104, 105, 106, 107, 108, 109, 110, 111, 112, 113, 114, 115, 116, 117, 118, 119, 120, 121, 122, 123, 124, 125, 126, 127, 128, 129, 130, 131, 132, 133, 134, 135, 136, 137, 138, 139, 140, 141, 142, 143, 144, 145, 146, 147, 148, 149, 150, 151, 152, 153, 154, 155, 156, 157, 158, 159, 160, 161, 162, 163, 164, 165, 166, 167, 168, 169, 170, 171, 172, 173, 174, 175, 176, 177, 178, 179, 180, 181, 182, 183, 184, 185, 186, 187, 188, 189, 190, 191, 192, 193, 194, 195, 196, 197, 198, 199, 200, 201, 202, 203, 204, 205, 206, 207, 208, 209, 210, 211, 212, 213, 214, 215, 216, 217, 218, 219, 220, 221, 222, 223, 224, 225, 226, 227, 228, 229, 230, 231, 232, 233, 234, 235, 236, 237, 238, 239, 240, 241, 242, 243, 244, 245, 246, 247, 248, 249, 250, 251, 252, 253, 254, 255, 256, 257, 258, 259, 260, 261, 262, 263, 264, 265, 266, 267, 268, 269, 270, 271, 272, 273, 274, 275, 276, 277, 278, 279, 280, 281, 282, 283, 284, 285, 286, 287, 288, 289, 290, 291, 292, 293, 294, 295, 296, 297, 298, 299, 300, 301, 302, 303, 304, 305, 306, 307, 308, 309, 310, 311, 312, 313, 314, 315, 316, 317, 318, 319, 320, 321, 322, 323, 324, 325, 326, 327, 328, 329, 330, 331, 332, 333, 334, 335, 336, 337, 338, 339, 340, 341, 342, 343, 344, 345, 346, 347, 348, 349, 350, 351, 352, 353, 354, 355, 356, 357, 358, 359, 360, 361, 362, 363, 364, 365, 366, 367, 368, 369, 370, 371, 372, 373, 374, 375, 376, 377, 378, 379, 380, 381, 382, 383, 384, 385, 386, 387, 388, 389, 390, 391, 392, 393, 394, 395, 396, 397, 398, 399, 400, 401, 402, 403, 404, 405, 406, 407, 408, 409, 410, 411, 412, 413, 414, 415, 416, 417, 418, 419, 420, 421, 422, 423, 424, 425, 426, 427, 428, 429, 430, 431, 432, 433, 434, 435, 436, 437],
      "AcquisitionTime": ["094819.920000", "094821.920000", "094823.920000", "094825.920000", "094827.920000", "094829.920000", "094831.920000", "094833.920000", "094835.920000", "094837.920000", "094839.920000", "094841.920000", "094843.920000", "094845.920000", "094847.920000", "094849.920000", "094851.920000", "094853.920000", "094855.920000", "094857.920000", "094859.920000", "094901.920000", "094903.920000", "094905.920000", "094907.920000", "094909.920000", "094911.920000", "094913.920000", "094915.920000", "094917.920000", "094919.920000", "094921.920000", "094923.920000", "094925.920000", "094927.920000", "094929.920000", "094931.920000", "094933.920000", "094935.920000", "094937.920000", "094939.920000", "094941.920000", "094943.920000", "094945.920000", "094947.920000", "094949.920000", "094951.920000", "094953.920000", "094955.920000", "094957.920000", "094959.920000", "095001.920000", "095003.920000", "095005.920000", "095007.920000", "095009.920000", "095011.920000", "095013.920000", "095015.920000", "095017.920000", "095019.920000", "095021.920000", "095023.920000", "095025.920000", "095027.920000", "095029.920000", "095031.920000", "095033.920000", "095035.920000", "095037.920000", "095039.920000", "095041.920000", "095043.920000", "095045.920000", "095047.920000", "095049.920000", "095051.920000", "095053.920000", "095055.920000", "095057.920000", "095059.920000", "095101.920000", "095103.920000", "095105.920000", "095107.920000", "095109.920000", "095111.920000", "095113.920000", "095115.920000", "095117.920000", "095119.920000", "095121.920000", "095123.920000", "095125.920000", "095127.920000", "095129.920000", "095131.920000", "095133.920000", "095135.920000", "095137.920000", "095139.920000", "095141.920000", "095143.920000", "095145.920000", "095147.920000", "095149.920000", "095151.920000", "095153.920000", "095155.920000", "095157.920000", "095159.920000", "095201.920000", "095203.920000", "095205.920000", "095207.920000", "095209.920000", "095211.920000", "095213.920000", "095215.920000", "095217.920000", "095219.920000", "095221.920000", "095223.920000", "095225.920000", "095227.920000", "095229.920000", "095231.920000", "095233.920000", "095235.920000", "095237.920000", "095239.920000", "095241.920000", "095243.920000", "095245.920000", "095247.920000", "095249.920000", "095251.920000", "095253.920000", "095255.920000", "095257.920000", "095259.920000", "095301.920000", "095303.920000", "095305.920000", "095307.920000", "095309.920000", "095311.920000", "095313.920000", "095315.920000", "095317.920000", "095319.920000", "095321.920000", "095323.920000", "095325.920000", "095327.920000", "095329.920000", "095331.920000", "095333.920000", "095335.920000", "095337.920000", "095339.920000", "095341.920000", "095343.920000", "095345.920000", "095347.920000", "095349.920000", "095351.920000", "095353.920000", "095355.920000", "095357.920000", "095359.920000", "095401.920000", "095403.920000", "095405.920000", "095407.920000", "095409.920000", "095411.920000", "095413.920000", "095415.920000", "095417.920000", "095419.920000", "095421.920000", "095423.920000", "095425.920000", "095427.920000", "095429.920000", "095431.920000", "095433.920000", "095435.920000", "095437.920000", "095439.920000", "095441.920000", "095443.920000", "095445.920000", "095447.920000", "095449.920000", "095451.920000", "095453.920000", "095455.920000", "095457.920000", "095459.920000", "095501.920000", "095503.920000", "095505.920000", "095507.920000", "095509.920000", "095511.920000", "095513.920000", "095515.920000", "095517.920000", "095519.920000", "095521.920000", "095523.920000", "095525.920000", "095527.920000", "095529.920000", "095531.920000", "095533.920000", "095535.920000", "095537.920000", "095539.920000", "095541.920000", "095543.920000", "095545.920000", "095547.920000", "095549.920000", "095551.920000", "095553.920000", "095555.920000", "095557.920000", "095559.920000", "095601.920000", "095603.920000", "095605.920000", "095607.920000", "095609.920000", "095611.920000", "095613.920000", "095615.920000", "095617.920000", "095619.920000", "095621.920000", "095623.920000", "095625.920000", "095627.920000", "095629.920000", "095631.920000", "095633.920000", "095635.920000", "095637.920000", "095639.920000", "095641.920000", "095643.920000", "095645.920000", "095647.920000", "095649.920000", "095651.920000", "095653.920000", "095655.920000", "095657.920000", "095659.920000", "095701.920000", "095703.920000", "095705.920000", "095707.920000", "095709.920000", "095711.920000", "095713.920000", "095715.920000", "095717.920000", "095719.920000", "095721.920000", "095723.920000", "095725.920000", "095727.920000", "095729.920000", "095731.920000", "095733.920000", "095735.920000", "095737.920000", "095739.920000", "095741.920000", "095743.920000", "095745.920000", "095747.920000", "095749.920000", "095751.920000", "095753.920000", "095755.920000", "095757.920000", "095759.920000", "095801.920000", "095803.920000", "095805.920000", "095807.920000", "095809.920000", "095811.920000", "095813.920000", "095815.920000", "095817.920000", "095819.920000", "095821.920000", "095823.920000", "095825.920000", "095827.920000", "095829.920000", "095831.920000", "095833.920000", "095835.920000", "095837.920000", "095839.920000", "095841.920000", "095843.920000", "095845.920000", "095847.920000", "095849.920000", "095851.920000", "095853.920000", "095855.920000", "095857.920000", "095859.920000", "095901.920000", "095903.920000", "095905.920000", "095907.920000", "095909.920000", "095911.920000", "095913.920000", "095915.920000", "095917.920000", "095919.920000", "095921.920000", "095923.920000", "095925.920000", "095927.920000", "095929.920000", "095931.920000", "095933.920000", "095935.920000", "095937.920000", "095939.920000", "095941.920000", "095943.920000", "095945.920000", "095947.920000", "095949.920000", "095951.920000", "095953.920000", "095955.920000", "095957.920000", "095959.920000", "100001.920000", "100003.920000", "100005.920000", "100007.920000", "100009.920000", "100011.920000", "100013.920000", "100015.920000", "100017.920000", "100019.920000", "100021.920000", "100023.920000", "100025.920000", "100027.920000", "100029.920000", "100031.920000", "100033.920000", "100035.920000", "100037.920000", "100039.920000", "100041.920000", "100043.920000", "100045.920000", "100047.920000", "100049.920000", "100051.920000", "100053.920000", "100055.920000", "100057.920000", "100059.920000", "100101.920000", "100103.920000", "100105.920000", "100107.920000", "100109.920000", "100111.920000", "100113.920000", "100115.920000", "100117.920000", "100119.920000", "100121.920000", "100123.920000", "100125.920000", "100127.920000", "100129.920000", "100131.920000", "100133.920000", "100135.920000", "100137.920000", "100139.920000", "100141.920000", "100143.920000", "100145.920000", "100147.920000", "100149.920000", "100151.920000", "100153.920000", "100155.920000", "100157.920000", "100159.920000", "100201.920000", "100203.920000", "100205.920000", "100207.920000", "100209.920000", "100211.920000", "100213.920000", "100215.920000", "100217.920000", "100219.920000", "100221.920000", "100223.920000", "100225.920000", "100227.920000", "100229.920000", "100231.920000", "100233.920000", "100235.920000", "100237.920000", "100239.920000", "100241.920000", "100243.920000", "100245.920000", "100247.920000", "100249.920000", "100251.920000"],
      "ContentTime": ["094915.303000", "094915.307000", "094915.310000", "094915.312000", "094915.320000", "094915.322000", "094915.332000", "094915.335000", "094915.337000", "094915.340000", "094915.342000", "094915.345000", "094915.348000", "094915.350000", "094915.353000", "094915.356000", "094915.358000", "094915.361000", "094915.364000", "094915.366000", "094915.369000", "094915.372000", "094915.374000", "094915.377000", "094915.379000", "094915.382000", "094915.385000", "094915.387000", "094955.300000", "094955.302000", "094955.305000", "094955.308000", "094955.310000", "094955.313000", "094955.316000", "094955.318000", "094955.321000", "094955.324000", "094955.327000", "094955.329000", "094955.339000", "094955.342000", "094955.344000", "094955.347000", "094955.350000", "094955.352000", "094955.355000", "094955.358000", "095035.300000", "095035.303000", "095035.305000", "095035.308000", "095035.311000", "095035.313000", "095035.316000", "095035.318000", "095035.321000", "095035.324000", "095035.326000", "095035.329000", "095035.332000", "095035.335000", "095035.337000", "095035.340000", "095035.343000", "095035.345000", "095035.348000", "095035.350000", "095115.299000", "095115.302000", "095115.305000", "095115.307000", "095115.310000", "095115.312000", "095115.315000", "095115.318000", "095115.320000", "095115.323000", "095115.326000", "095115.328000", "095115.331000", "095115.334000", "095115.336000", "095115.339000", "095115.342000", "095115.344000", "095115.354000", "095115.357000", "095155.299000", "095155.302000", "095155.305000", "095155.307000", "095155.310000", "095155.313000", "095155.315000", "095155.318000", "095155.321000", "095155.323000", "095155.326000", "095155.329000", "095155.331000", "095155.334000", "095155.337000", "095155.339000", "095155.342000", "095155.345000", "095155.347000", "095155.350000", "095235.300000", "095235.302000", "095235.305000", "095235.308000", "095235.311000", "095235.313000", "095235.316000", "095235.319000", "095235.321000", "095235.324000", "095235.326000", "095235.329000", "095235.332000", "095235.334000", "095235.337000", "095235.340000", "095235.342000", "095235.345000", "095235.348000", "095235.350000", "095315.299000", "095315.301000", "095315.304000", "095315.307000", "095315.310000", "095315.312000", "095315.315000", "095315.317000", "095315.320000", "095315.323000", "095315.325000", "095315.328000", "095315.331000", "095315.333000", "095315.336000", "095315.339000", "095315.341000", "095315.344000", "095315.347000", "095315.349000", "095355.299000", "095355.301000", "095355.304000", "095355.307000", "095355.309000", "095355.312000", "095355.315000", "095355.318000", "095355.320000", "095355.323000", "095355.326000", "095355.328000", "095355.331000", "095355.334000", "095355.336000", "095355.339000", "095355.342000", "095355.344000", "095355.347000", "095355.350000", "095435.300000", "095435.302000", "095435.305000", "095435.308000", "095435.310000", "095435.313000", "095435.316000", "095435.318000", "095435.321000", "095435.324000", "095435.326000", "095435.329000", "095435.332000", "095435.334000", "095435.337000", "095435.340000", "095435.342000", "095435.345000", "095435.347000", "095435.350000", "095515.299000", "095515.302000", "095515.304000", "095515.307000", "095515.309000", "095515.312000", "095515.315000", "095515.318000", "095515.320000", "095515.323000", "095515.326000", "095515.328000", "095515.331000", "095515.333000", "095515.336000", "095515.339000", "095515.357000", "095515.360000", "095515.362000", "095515.365000", "095555.299000", "095555.302000", "095555.305000", "095555.307000", "095555.310000", "095555.313000", "095555.315000", "095555.318000", "095555.321000", "095555.323000", "095555.326000", "095555.329000", "095555.331000", "095555.334000", "095555.337000", "095555.340000", "095555.342000", "095555.345000", "095555.348000", "095555.350000", "095635.299000", "095635.301000", "095635.304000", "095635.307000", "095635.309000", "095635.312000", "095635.315000", "095635.317000", "095635.320000", "095635.323000", "095635.326000", "095635.328000", "095635.331000", "095635.334000", "095635.336000", "095635.339000", "095635.342000", "095635.344000", "095635.347000", "095635.350000", "095715.300000", "095715.303000", "095715.305000", "095715.308000", "095715.310000", "095715.313000", "095715.316000", "095715.319000", "095715.321000", "095715.324000", "095715.327000", "095715.329000", "095715.332000", "095715.335000", "095715.337000", "095715.340000", "095715.343000", "095715.346000", "095715.348000", "095715.357000", "095755.299000", "095755.301000", "095755.304000", "095755.307000", "095755.309000", "095755.312000", "095755.315000", "095755.317000", "095755.320000", "095755.323000", "095755.326000", "095755.328000", "095755.331000", "095755.334000", "095755.336000", "095755.339000", "095755.342000", "095755.344000", "095755.347000", "095755.350000", "095835.299000", "095835.302000", "095835.304000", "095835.307000", "095835.310000", "095835.313000", "095835.315000", "095835.318000", "095835.321000", "095835.323000", "095835.326000", "095835.329000", "095835.331000", "095835.334000", "095835.337000", "095835.339000", "095835.342000", "095835.345000", "095835.348000", "095835.350000", "095915.300000", "095915.303000", "095915.306000", "095915.308000", "095915.311000", "095915.314000", "095915.316000", "095915.319000", "095915.322000", "095915.325000", "095915.327000", "095915.330000", "095915.333000", "095915.335000", "095915.338000", "095915.341000", "095915.343000", "095915.346000", "095915.349000", "095915.351000", "095955.299000", "095955.302000", "095955.304000", "095955.307000", "095955.310000", "095955.312000", "095955.315000", "095955.318000", "095955.320000", "095955.323000", "095955.326000", "095955.328000", "095955.331000", "095955.334000", "095955.337000", "095955.339000", "095955.342000", "095955.344000", "095955.347000", "095955.350000", "100035.299000", "100035.302000", "100035.304000", "100035.307000", "100035.310000", "100035.312000", "100035.315000", "100035.318000", "100035.320000", "100035.323000", "100035.326000", "100035.328000", "100035.331000", "100035.334000", "100035.336000", "100035.339000", "100035.342000", "100035.344000", "100035.347000", "100035.350000", "100115.299000", "100115.302000", "100115.304000", "100115.307000", "100115.310000", "100115.312000", "100115.315000", "100115.318000", "100115.321000", "100115.323000", "100115.326000", "100115.329000", "100115.331000", "100115.334000", "100115.337000", "100115.340000", "100115.342000", "100115.345000", "100115.348000", "100115.350000", "100155.300000", "100155.302000", "100155.305000", "100155.308000", "100155.311000", "100155.313000", "100155.316000", "100155.319000", "100155.321000", "100155.324000", "100155.327000", "100155.329000", "100155.332000", "100155.335000", "100155.337000", "100155.340000", "100155.343000", "100155.345000", "100155.348000", "100155.351000", "100235.309000", "100235.312000", "100235.315000", "100235.317000", "100235.320000", "100235.323000", "100235.325000", "100235.328000", "100235.331000", "100235.333000", "100235.336000", "100235.339000", "100235.342000", "100235.344000", "100235.347000", "100235.349000", "100235.352000", "100235.355000", "100235.358000", "100235.360000", "100253.186000", "100253.189000", "100253.192000", "100253.195000", "100253.197000", "100253.200000", "100253.203000", "100253.205000", "100253.208000"],
      "DataSetTrailingPadding": [
        "\u0000\u0000\u0000\u0000\u0000\u0000\u0000\u0000\u0000\u0000\u0000\u0000\u0000\u0000\u0000\u0000\u0000\u0000\u0000\u0000\u0000\u0000\u0000\u0000\u0000\u0000\u0000\u0000\u0000\u0000\u0000\u0000\u0000\u0000\u0000\u0000\u0000\u0000\u0000\u0000\u0000\u0000\u0000\u0000\u0000\u0000\u0000\u0000\u0000\u0000\u0000\u0000\u0000\u0000\u0000\u0000\u0000\u0000\u0000\u0000\u0000\u0000\u0000\u0000\u0000\u0000\u0000\u0000\u0000\u0000\u0000\u0000\u0000\u0000\u0000\u0000\u0000\u0000\u0000\u0000\u0000\u0000\u0000\u0000\u0000\u0000\u0000\u0000\u0000\u0000\u0000\u0000\u0000\u0000\u0000\u0000\u0000\u0000\u0000\u0000\u0000\u0000\u0000\u0000\u0000\u0000\u0000\u0000\u0000\u0000\u0000\u0000\u0000\u0000\u0000\u0000\u0000\u0000\u0000\u0000\u0000\u0000\u0000\u0000\u0000\u0000\u0000\u0000\u0000\u0000\u0000\u0000\u0000\u0000\u0000\u0000\u0000\u0000\u0000\u0000\u0000\u0000\u0000\u0000\u0000\u0000\u0000\u0000\u0000\u0000\u0000\u0000\u0000\u0000\u0000\u0000\u0000\u0000\u0000\u0000\u0000\u0000\u0000\u0000\u0000\u0000\u0000\u0000\u0000\u0000\u0000\u0000\u0000\u0000\u0000\u0000\u0000\u0000\u0000\u0000\u0000\u0000\u0000\u0000\u0000\u0000\u0000\u0000\u0000\u0000\u0000\u0000\u0000\u0000\u0000\u0000\u0000\u0000\u0000\u0000\u0000\u0000\u0000\u0000\u0000\u0000\u0000\u0000\u0000\u0000\u0000\u0000\u0000\u0000\u0000\u0000\u0000\u0000\u0000\u0000\u0000\u0000\u0000\u0000\u0000\u0000\u0000\u0000\u0000\u0000\u0000\u0000\u0000\u0000\u0000\u0000\u0000\u0000\u0000\u0000\u0000\u0000\u0000\u0000\u0000\u0000\u0000\u0000\u0000\u0000\u0000\u0000\u0000\u0000\u0000\u0000\u0000\u0000",
        "\u0000\u0000\u0000\u0000\u0000\u0000\u0000\u0000\u0000\u0000\u0000\u0000\u0000\u0000\u0000\u0000\u0000\u0000\u0000\u0000\u0000\u0000\u0000\u0000\u0000\u0000\u0000\u0000\u0000\u0000\u0000\u0000\u0000\u0000\u0000\u0000\u0000\u0000\u0000\u0000\u0000\u0000\u0000\u0000\u0000\u0000\u0000\u0000\u0000\u0000\u0000\u0000\u0000\u0000\u0000\u0000\u0000\u0000\u0000\u0000\u0000\u0000\u0000\u0000\u0000\u0000\u0000\u0000\u0000\u0000\u0000\u0000\u0000\u0000\u0000\u0000\u0000\u0000\u0000\u0000\u0000\u0000\u0000\u0000\u0000\u0000\u0000\u0000\u0000\u0000\u0000\u0000\u0000\u0000\u0000\u0000\u0000\u0000\u0000\u0000\u0000\u0000\u0000\u0000\u0000\u0000\u0000\u0000\u0000\u0000\u0000\u0000\u0000\u0000\u0000\u0000\u0000\u0000\u0000\u0000\u0000\u0000\u0000\u0000\u0000\u0000\u0000\u0000\u0000\u0000\u0000\u0000\u0000\u0000\u0000\u0000\u0000\u0000\u0000\u0000\u0000\u0000\u0000\u0000\u0000\u0000\u0000\u0000\u0000\u0000\u0000\u0000\u0000\u0000\u0000\u0000\u0000\u0000\u0000\u0000\u0000\u0000\u0000\u0000\u0000\u0000\u0000\u0000\u0000\u0000\u0000\u0000\u0000\u0000\u0000\u0000\u0000\u0000\u0000\u0000\u0000\u0000\u0000\u0000\u0000\u0000\u0000\u0000\u0000\u0000\u0000\u0000\u0000\u0000\u0000\u0000\u0000\u0000\u0000\u0000\u0000\u0000\u0000\u0000\u0000\u0000\u0000\u0000\u0000\u0000\u0000\u0000\u0000\u0000\u0000\u0000\u0000\u0000\u0000\u0000\u0000\u0000\u0000\u0000\u0000\u0000\u0000\u0000\u0000\u0000\u0000\u0000\u0000\u0000\u0000\u0000\u0000\u0000\u0000\u0000\u0000\u0000\u0000\u0000\u0000\u0000\u0000\u0000\u0000\u0000\u0000\u0000\u0000\u0000\u0000\u0000",
        "\u0000\u0000\u0000\u0000\u0000\u0000\u0000\u0000\u0000\u0000\u0000\u0000\u0000\u0000\u0000\u0000\u0000\u0000\u0000\u0000\u0000\u0000\u0000\u0000\u0000\u0000\u0000\u0000\u0000\u0000\u0000\u0000\u0000\u0000\u0000\u0000\u0000\u0000\u0000\u0000\u0000\u0000\u0000\u0000\u0000\u0000\u0000\u0000\u0000\u0000\u0000\u0000\u0000\u0000\u0000\u0000\u0000\u0000\u0000\u0000\u0000\u0000\u0000\u0000\u0000\u0000\u0000\u0000\u0000\u0000\u0000\u0000\u0000\u0000\u0000\u0000\u0000\u0000\u0000\u0000\u0000\u0000\u0000\u0000\u0000\u0000\u0000\u0000\u0000\u0000\u0000\u0000\u0000\u0000\u0000\u0000\u0000\u0000\u0000\u0000\u0000\u0000\u0000\u0000\u0000\u0000\u0000\u0000\u0000\u0000\u0000\u0000\u0000\u0000\u0000\u0000\u0000\u0000\u0000\u0000\u0000\u0000\u0000\u0000\u0000\u0000\u0000\u0000\u0000\u0000\u0000\u0000\u0000\u0000\u0000\u0000\u0000\u0000\u0000\u0000\u0000\u0000\u0000\u0000\u0000\u0000\u0000\u0000\u0000\u0000\u0000\u0000\u0000\u0000\u0000\u0000\u0000\u0000\u0000\u0000\u0000\u0000\u0000\u0000\u0000\u0000\u0000\u0000\u0000\u0000\u0000\u0000\u0000\u0000\u0000\u0000\u0000\u0000\u0000\u0000\u0000\u0000\u0000\u0000\u0000\u0000\u0000\u0000\u0000\u0000\u0000\u0000\u0000\u0000\u0000\u0000\u0000\u0000\u0000\u0000\u0000\u0000\u0000\u0000\u0000\u0000\u0000\u0000\u0000\u0000\u0000\u0000\u0000\u0000\u0000\u0000\u0000\u0000\u0000\u0000\u0000\u0000\u0000\u0000\u0000\u0000\u0000\u0000\u0000\u0000\u0000\u0000\u0000\u0000\u0000\u0000\u0000\u0000\u0000\u0000\u0000\u0000\u0000\u0000\u0000\u0000\u0000\u0000\u0000\u0000\u0000\u0000\u0000\u0000\u0000\u0000",
        "\u0000\u0000\u0000\u0000\u0000\u0000\u0000\u0000\u0000\u0000\u0000\u0000\u0000\u0000\u0000\u0000\u0000\u0000\u0000\u0000\u0000\u0000\u0000\u0000\u0000\u0000\u0000\u0000\u0000\u0000\u0000\u0000\u0000\u0000\u0000\u0000\u0000\u0000\u0000\u0000\u0000\u0000\u0000\u0000\u0000\u0000\u0000\u0000\u0000\u0000\u0000\u0000\u0000\u0000\u0000\u0000\u0000\u0000\u0000\u0000\u0000\u0000\u0000\u0000\u0000\u0000\u0000\u0000\u0000\u0000\u0000\u0000\u0000\u0000\u0000\u0000\u0000\u0000\u0000\u0000\u0000\u0000\u0000\u0000\u0000\u0000\u0000\u0000\u0000\u0000\u0000\u0000\u0000\u0000\u0000\u0000\u0000\u0000\u0000\u0000\u0000\u0000\u0000\u0000\u0000\u0000\u0000\u0000\u0000\u0000\u0000\u0000\u0000\u0000\u0000\u0000\u0000\u0000\u0000\u0000\u0000\u0000\u0000\u0000\u0000\u0000\u0000\u0000\u0000\u0000\u0000\u0000\u0000\u0000\u0000\u0000\u0000\u0000\u0000\u0000\u0000\u0000\u0000\u0000\u0000\u0000\u0000\u0000\u0000\u0000\u0000\u0000\u0000\u0000\u0000\u0000\u0000\u0000\u0000\u0000\u0000\u0000\u0000\u0000\u0000\u0000\u0000\u0000\u0000\u0000\u0000\u0000\u0000\u0000\u0000\u0000\u0000\u0000\u0000\u0000\u0000\u0000\u0000\u0000\u0000\u0000\u0000\u0000\u0000\u0000\u0000\u0000\u0000\u0000\u0000\u0000\u0000\u0000\u0000\u0000\u0000\u0000\u0000\u0000\u0000\u0000\u0000\u0000\u0000\u0000\u0000\u0000\u0000\u0000\u0000\u0000\u0000\u0000\u0000\u0000\u0000\u0000\u0000\u0000\u0000\u0000\u0000\u0000\u0000\u0000\u0000\u0000\u0000\u0000\u0000\u0000\u0000\u0000\u0000\u0000\u0000\u0000\u0000\u0000\u0000\u0000\u0000\u0000\u0000\u0000\u0000\u0000\u0000\u0000\u0000\u0000",
