{
  "AcquisitionMatrixPE": 70,
  "AcquisitionNumber": 1,
  "AcquisitionTime": "09:32:39.567500",
  "BandwidthPerPixelPhaseEncode": 51.948,
  "BaseResolution": 70,
  "BodyPartExamined": "HEAD",
  "CoilCombinationMethod": "Sum of Squares",
  "ConsistencyInfo": "N4_VE11C_LATEST_20160120",
  "ConversionSoftware": "dcm2niix",
  "ConversionSoftwareVersion": "v1.0.20220720",
  "DerivedVendorReportedEchoSpacing": 0.000550001,
  "DeviceSerialNumber": "66061",
  "DwellTime": 3.3e-06,
  "EchoTime": 0.022,
  "EchoTrainLength": 35,
  "EffectiveEchoSpacing": 0.000275,
  "FlipAngle": 90,
  "HeudiconvVersion": "1.1.1",
  "ImageOrientationPatientDICOM": [0.998197, 0.0138948, 0.0583886, -0.00121956, 0.977328, -0.211727],
  "ImageOrientationText": "Tra>Cor(-12.2)>Sag(3.4)",
  "ImageType": [
    "ORIGINAL",
    "PRIMARY",
    "M",
    "ND",
    "NORM",
    "MOSAIC"
],
  "ImagingFrequency": 123.254,
  "InPlanePhaseEncodingDirectionDICOM": "COL",
  "InstitutionAddress": "Street StreetNo,City/1c4204/,District,KR,ZIP",
  "InstitutionName": "SKKU",
  "InstitutionalDepartmentName": "Department",
  "MRAcquisitionType": "2D",
  "MagneticFieldStrength": 3,
  "Manufacturer": "Siemens",
  "ManufacturersModelName": "Prisma",
  "MatrixCoilMode": "GRAPPA",
  "Modality": "MR",
  "NonlinearGradientCorrection": false,
  "ParallelReductionFactorInPlane": 2,
  "PartialFourier": 1,
  "PatientPosition": "HFS",
  "PercentPhaseFOV": 100,
  "PercentSampling": 100,
  "PhaseEncodingDirection": "j-",
  "PhaseEncodingSteps": 70,
  "PhaseResolution": 1,
  "PixelBandwidth": 2165,
  "ProcedureStepDescription": "Head^PI:Others",
  "ProtocolName": "BOLD_ep2d_3x3x3_dimension1",
  "PulseSequenceDetails": "%SiemensSeq%\\ep2d_pace",
  "ReceiveCoilActiveElements": "HC1-7;NC1",
  "ReceiveCoilName": "HeadNeck_64",
  "ReconMatrixPE": 70,
  "RefLinesPE": 24,
  "RepetitionTime": 2,
  "SAR": 0.144862,
  "ScanOptions": "FS",
  "ScanningSequence": "EP",
  "SequenceName": "*epfid2d1_70",
  "SequenceVariant": "SK",
  "SeriesDescription": "BOLD_ep2d_3x3x3_dimension1",
  "SeriesNumber": 8,
  "ShimSetting": [5067, 3758, 4454, 373, -80, 1, -26, 42],
  "SliceThickness": 3,
  "SliceTiming": [0.99, 0, 1.0375, 0.0475, 1.085, 0.095, 1.1325, 0.1425, 1.18, 0.19, 1.225, 0.235, 1.2725, 0.2825, 1.32, 0.33, 1.3675, 0.3775, 1.415, 0.425, 1.4625, 0.4725, 1.51, 0.52, 1.555, 0.565, 1.6025, 0.6125, 1.65, 0.66, 1.6975, 0.7075, 1.745, 0.755, 1.7925, 0.8025, 1.84, 0.85, 1.885, 0.895, 1.9325, 0.9425],
  "SoftwareVersions": "syngo MR E11",
  "SpacingBetweenSlices": 3,
  "StationName": "AWP66061",
  "TaskName": "dimension",
  "TotalReadoutTime": 0.018975,
  "TxRefAmp": 259.847,
  "dcmmeta_affine": [
    [-2.99459171295166, -0.0036586837377399206, 0.1800203174352646, 108.29607391357422],
    [-0.04168442264199257, 2.9319846630096436, -0.6338207721710205, -81.001953125],
    [0.17516595125198364, 0.6351795196533203, 2.9267497062683105, -79.22110748291016],
    [0.0, 0.0, 0.0, 1.0]
],
  "dcmmeta_reorient_transform": [
    [0.0, -1.0, 0.0, 69.0],
    [1.0, 0.0, 0.0, 0.0],
    [0.0, 0.0, -1.0, 41.0],
    [0.0, 0.0, 0.0, 1.0]
],
  "dcmmeta_shape": [70, 70, 42, 437],
  "dcmmeta_slice_dim": 2,
  "dcmmeta_version": 0.6,
  "global": {
    "const": {
      "AcquisitionMatrix": [70, 0, 0, 70],
      "AngioFlag": "N",
      "BitsAllocated": 16,
      "BitsStored": 12,
      "BodyPartExamined": "HEAD",
      "Columns": 490,
      "EchoNumbers": 1,
      "EchoTime": 22.0,
      "EchoTrainLength": 35,
      "FlipAngle": 90.0,
      "HighBit": 11,
      "ImageOrientationPatient": [0.9981972250566, 0.01389480727215, 0.0583886480421, -0.0012195612485, 0.97732819495722, -0.2117265028569],
      "ImagePositionPatient": [-743.52038225348, -719.78882534739, 181.20586387727],
      "ImageType": [
        "ORIGINAL",
        "PRIMARY",
        "M",
        "ND",
        "NORM",
        "MOSAIC"
],
      "ImagedNucleus": "1H",
      "ImagingFrequency": 123.25439,
      "InPlanePhaseEncodingDirection": "COL",
      "MRAcquisitionType": "2D",
      "MagneticFieldStrength": 3.0,
      "Manufacturer": "SIEMENS",
      "ManufacturerModelName": "Prisma",
      "Modality": "MR",
      "NumberOfAverages": 1.0,
      "NumberOfPhaseEncodingSteps": 70,
      "PercentPhaseFieldOfView": 100.0,
      "PercentSampling": 100.0,
      "PerformedProcedureStepStartTime": "084615.606000",
      "PhotometricInterpretation": "MONOCHROME2",
      "PixelBandwidth": 2165.0,
      "PixelRepresentation": 0,
      "PixelSpacing": [3.0, 3.0],
      "ProtocolName": "BOLD_ep2d_3x3x3_dimension1",
      "RepetitionTime": 2000.0,
      "Rows": 490,
      "SAR": 0.14486195335773,
      "SamplesPerPixel": 1,
      "ScanOptions": "FS",
      "ScanningSequence": "EP",
      "SequenceName": "*epfid2d1_70",
      "SequenceVariant": "SK",
      "SeriesDescription": "BOLD_ep2d_3x3x3_dimension1",
      "SeriesNumber": 8,
      "SeriesTime": "093320.951000",
      "SliceLocation": 69.325284937085,
      "SliceThickness": 3.0,
      "SmallestImagePixelValue": 0,
      "SoftwareVersions": "syngo MR E11",
      "SpacingBetweenSlices": 3.0000000065755,
      "SpecificCharacterSet": "ISO_IR 100",
      "StudyID": "1",
      "StudyTime": "084615.516000",
      "TransmitCoilName": "Body",
      "VariableFlipAngleFlag": "N",
      "WindowCenterWidthExplanation": "Algo1",
      "dBdt": 0.0},
    "slices": {}
  },
  "time": {
    "samples": {
      "AcquisitionNumber": [1, 2, 3, 4, 5, 6, 7, 8, 9, 10, 11, 12, 13, 14, 15, 16, 17, 18, 19, 20, 21, 22, 23, 24, 25, 26, 27, 28, 29, 30, 31, 32, 33, 34, 35, 36, 37, 38, 39, 40, 41, 42, 43, 44, 45, 46, 47, 48, 49, 50, 51, 52, 53, 54, 55, 56, 57, 58, 59, 60, 61, 62, 63, 64, 65, 66, 67, 68, 69, 70, 71, 72, 73, 74, 75, 76, 77, 78, 79, 80, 81, 82, 83, 84, 85, 86, 87, 88, 89, 90, 91, 92, 93, 94, 95, 96, 97, 98, 99, 100, 101, 102, 103, 104, 105, 106, 107, 108, 109, 110, 111, 112, 113, 114, 115, 116, 117, 118, 119, 120, 121, 122, 123, 124, 125, 126, 127, 128, 129, 130, 131, 132, 133, 134, 135, 136, 137, 138, 139, 140, 141, 142, 143, 144, 145, 146, 147, 148, 149, 150, 151, 152, 153, 154, 155, 156, 157, 158, 159, 160, 161, 162, 163, 164, 165, 166, 167, 168, 169, 170, 171, 172, 173, 174, 175, 176, 177, 178, 179, 180, 181, 182, 183, 184, 185, 186, 187, 188, 189, 190, 191, 192, 193, 194, 195, 196, 197, 198, 199, 200, 201, 202, 203, 204, 205, 206, 207, 208, 209, 210, 211, 212, 213, 214, 215, 216, 217, 218, 219, 220, 221, 222, 223, 224, 225, 226, 227, 228, 229, 230, 231, 232, 233, 234, 235, 236, 237, 238, 239, 240, 241, 242, 243, 244, 245, 246, 247, 248, 249, 250, 251, 252, 253, 254, 255, 256, 257, 258, 259, 260, 261, 262, 263, 264, 265, 266, 267, 268, 269, 270, 271, 272, 273, 274, 275, 276, 277, 278, 279, 280, 281, 282, 283, 284, 285, 286, 287, 288, 289, 290, 291, 292, 293, 294, 295, 296, 297, 298, 299, 300, 301, 302, 303, 304, 305, 306, 307, 308, 309, 310, 311, 312, 313, 314, 315, 316, 317, 318, 319, 320, 321, 322, 323, 324, 325, 326, 327, 328, 329, 330, 331, 332, 333, 334, 335, 336, 337, 338, 339, 340, 341, 342, 343, 344, 345, 346, 347, 348, 349, 350, 351, 352, 353, 354, 355, 356, 357, 358, 359, 360, 361, 362, 363, 364, 365, 366, 367, 368, 369, 370, 371, 372, 373, 374, 375, 376, 377, 378, 379, 380, 381, 382, 383, 384, 385, 386, 387, 388, 389, 390, 391, 392, 393, 394, 395, 396, 397, 398, 399, 400, 401, 402, 403, 404, 405, 406, 407, 408, 409, 410, 411, 412, 413, 414, 415, 416, 417, 418, 419, 420, 421, 422, 423, 424, 425, 426, 427, 428, 429, 430, 431, 432, 433, 434, 435, 436, 437],
      "AcquisitionTime": ["093239.567500", "093241.567500", "093243.567500", "093245.567500", "093247.567500", "093249.567500", "093251.567500", "093253.567500", "093255.567500", "093257.567500", "093259.567500", "093301.567500", "093303.567500", "093305.567500", "093307.567500", "093309.567500", "093311.567500", "093313.567500", "093315.567500", "093317.567500", "093319.567500", "093321.567500", "093323.567500", "093325.567500", "093327.567500", "093329.567500", "093331.567500", "093333.567500", "093335.567500", "093337.567500", "093339.567500", "093341.567500", "093343.567500", "093345.567500", "093347.567500", "093349.567500", "093351.567500", "093353.567500", "093355.567500", "093357.567500", "093359.567500", "093401.567500", "093403.567500", "093405.567500", "093407.567500", "093409.567500", "093411.567500", "093413.567500", "093415.567500", "093417.567500", "093419.567500", "093421.567500", "093423.567500", "093425.567500", "093427.567500", "093429.567500", "093431.567500", "093433.567500", "093435.567500", "093437.567500", "093439.567500", "093441.567500", "093443.567500", "093445.567500", "093447.567500", "093449.567500", "093451.567500", "093453.567500", "093455.567500", "093457.567500", "093459.567500", "093501.567500", "093503.567500", "093505.567500", "093507.567500", "093509.567500", "093511.567500", "093513.567500", "093515.567500", "093517.567500", "093519.567500", "093521.567500", "093523.567500", "093525.567500", "093527.567500", "093529.567500", "093531.567500", "093533.567500", "093535.567500", "093537.567500", "093539.567500", "093541.567500", "093543.567500", "093545.567500", "093547.567500", "093549.567500", "093551.567500", "093553.567500", "093555.567500", "093557.567500", "093559.567500", "093601.567500", "093603.567500", "093605.567500", "093607.567500", "093609.567500", "093611.567500", "093613.567500", "093615.567500", "093617.567500", "093619.567500", "093621.567500", "093623.567500", "093625.567500", "093627.567500", "093629.567500", "093631.567500", "093633.567500", "093635.567500", "093637.567500", "093639.567500", "093641.567500", "093643.567500", "093645.567500", "093647.567500", "093649.567500", "093651.567500", "093653.567500", "093655.567500", "093657.567500", "093659.567500", "093701.567500", "093703.567500", "093705.567500", "093707.567500", "093709.567500", "093711.567500", "093713.567500", "093715.567500", "093717.567500", "093719.567500", "093721.567500", "093723.567500", "093725.567500", "093727.567500", "093729.567500", "093731.567500", "093733.567500", "093735.567500", "093737.567500", "093739.567500", "093741.567500", "093743.567500", "093745.567500", "093747.567500", "093749.567500", "093751.567500", "093753.567500", "093755.567500", "093757.567500", "093759.567500", "093801.567500", "093803.567500", "093805.567500", "093807.567500", "093809.567500", "093811.567500", "093813.567500", "093815.567500", "093817.567500", "093819.567500", "093821.567500", "093823.567500", "093825.567500", "093827.567500", "093829.567500", "093831.567500", "093833.567500", "093835.567500", "093837.567500", "093839.567500", "093841.567500", "093843.567500", "093845.567500", "093847.567500", "093849.567500", "093851.567500", "093853.567500", "093855.567500", "093857.567500", "093859.567500", "093901.567500", "093903.567500", "093905.567500", "093907.567500", "093909.567500", "093911.567500", "093913.567500", "093915.567500", "093917.567500", "093919.567500", "093921.567500", "093923.567500", "093925.567500", "093927.567500", "093929.567500", "093931.567500", "093933.567500", "093935.567500", "093937.567500", "093939.567500", "093941.567500", "093943.567500", "093945.567500", "093947.567500", "093949.567500", "093951.567500", "093953.567500", "093955.567500", "093957.567500", "093959.567500", "094001.567500", "094003.567500", "094005.567500", "094007.567500", "094009.567500", "094011.567500", "094013.567500", "094015.567500", "094017.567500", "094019.567500", "094021.567500", "094023.567500", "094025.567500", "094027.567500", "094029.567500", "094031.567500", "094033.567500", "094035.567500", "094037.567500", "094039.567500", "094041.567500", "094043.567500", "094045.567500", "094047.567500", "094049.567500", "094051.567500", "094053.567500", "094055.567500", "094057.567500", "094059.567500", "094101.567500", "094103.567500", "094105.567500", "094107.567500", "094109.567500", "094111.567500", "094113.567500", "094115.567500", "094117.567500", "094119.567500", "094121.567500", "094123.567500", "094125.567500", "094127.567500", "094129.567500", "094131.567500", "094133.567500", "094135.567500", "094137.567500", "094139.567500", "094141.567500", "094143.567500", "094145.567500", "094147.567500", "094149.567500", "094151.567500", "094153.567500", "094155.567500", "094157.567500", "094159.567500", "094201.567500", "094203.567500", "094205.567500", "094207.567500", "094209.567500", "094211.567500", "094213.567500", "094215.567500", "094217.567500", "094219.567500", "094221.567500", "094223.567500", "094225.567500", "094227.567500", "094229.567500", "094231.567500", "094233.567500", "094235.567500", "094237.567500", "094239.567500", "094241.567500", "094243.567500", "094245.567500", "094247.567500", "094249.567500", "094251.567500", "094253.567500", "094255.567500", "094257.567500", "094259.567500", "094301.567500", "094303.567500", "094305.567500", "094307.567500", "094309.567500", "094311.567500", "094313.567500", "094315.567500", "094317.567500", "094319.567500", "094321.567500", "094323.567500", "094325.567500", "094327.567500", "094329.567500", "094331.567500", "094333.567500", "094335.567500", "094337.567500", "094339.567500", "094341.567500", "094343.567500", "094345.567500", "094347.567500", "094349.567500", "094351.567500", "094353.567500", "094355.567500", "094357.567500", "094359.567500", "094401.567500", "094403.567500", "094405.567500", "094407.567500", "094409.567500", "094411.567500", "094413.567500", "094415.567500", "094417.567500", "094419.567500", "094421.567500", "094423.567500", "094425.567500", "094427.567500", "094429.567500", "094431.567500", "094433.567500", "094435.567500", "094437.567500", "094439.567500", "094441.567500", "094443.567500", "094445.567500", "094447.567500", "094449.567500", "094451.567500", "094453.567500", "094455.567500", "094457.567500", "094459.567500", "094501.567500", "094503.567500", "094505.567500", "094507.567500", "094509.567500", "094511.567500", "094513.567500", "094515.567500", "094517.567500", "094519.567500", "094521.567500", "094523.567500", "094525.567500", "094527.567500", "094529.567500", "094531.567500", "094533.567500", "094535.567500", "094537.567500", "094539.567500", "094541.567500", "094543.567500", "094545.567500", "094547.567500", "094549.567500", "094551.567500", "094553.567500", "094555.567500", "094557.567500", "094559.567500", "094601.567500", "094603.567500", "094605.567500", "094607.567500", "094609.567500", "094611.567500", "094613.567500", "094615.567500", "094617.567500", "094619.567500", "094621.567500", "094623.567500", "094625.567500", "094627.567500", "094629.567500", "094631.567500", "094633.567500", "094635.567500", "094637.567500", "094639.567500", "094641.567500", "094643.567500", "094645.567500", "094647.567500", "094649.567500", "094651.567500", "094653.567500", "094655.567500", "094657.567500", "094659.567500", "094701.567500", "094703.567500", "094705.567500", "094707.567500", "094709.567500", "094711.567500"],
      "ContentTime": ["093320.954000", "093320.958000", "093320.964000", "093320.968000", "093320.971000", "093320.974000", "093320.976000", "093320.979000", "093320.982000", "093320.984000", "093320.987000", "093320.990000", "093320.992000", "093320.995000", "093320.998000", "093321.007000", "093321.010000", "093321.013000", "093321.015000", "093321.018000", "093321.021000", "093400.950000", "093400.953000", "093400.955000", "093400.958000", "093400.961000", "093400.963000", "093400.966000", "093400.969000", "093400.971000", "093400.974000", "093400.977000", "093400.979000", "093400.982000", "093400.985000", "093400.987000", "093400.990000", "093400.993000", "093400.995000", "093400.998000", "093401.002000", "093440.950000", "093440.953000", "093440.955000", "093440.958000", "093440.961000", "093440.963000", "093440.966000", "093440.969000", "093440.971000", "093440.974000", "093440.977000", "093440.979000", "093440.982000", "093440.985000", "093440.987000", "093440.990000", "093440.992000", "093440.995000", "093440.998000", "093441.001000", "093520.950000", "093520.953000", "093520.955000", "093520.958000", "093520.961000", "093520.963000", "093520.966000", "093520.969000", "093520.971000", "093520.974000", "093520.977000", "093520.980000", "093520.982000", "093520.985000", "093520.988000", "093520.990000", "093520.993000", "093520.995000", "093520.998000", "093521.001000", "093540.950000", "093540.953000", "093540.955000", "093540.958000", "093540.961000", "093540.963000", "093540.966000", "093540.969000", "093540.971000", "093540.974000", "093620.950000", "093620.953000", "093620.955000", "093620.958000", "093620.960000", "093620.963000", "093620.966000", "093620.968000", "093620.971000", "093620.974000", "093620.976000", "093620.979000", "093620.982000", "093620.984000", "093620.987000", "093620.990000", "093620.992000", "093620.995000", "093620.998000", "093621.001000", "093700.950000", "093700.953000", "093700.955000", "093700.958000", "093700.961000", "093700.963000", "093700.966000", "093700.969000", "093700.971000", "093700.974000", "093700.977000", "093700.979000", "093700.982000", "093700.985000", "093700.987000", "093700.990000", "093700.993000", "093700.995000", "093700.998000", "093701.002000", "093740.950000", "093740.953000", "093740.955000", "093740.958000", "093740.961000", "093740.963000", "093740.966000", "093740.969000", "093740.971000", "093740.974000", "093740.977000", "093740.979000", "093740.982000", "093740.985000", "093740.987000", "093740.990000", "093740.992000", "093740.995000", "093740.998000", "093741.000000", "093820.950000", "093820.953000", "093820.955000", "093820.958000", "093820.961000", "093820.963000", "093820.966000", "093820.969000", "093820.971000", "093820.974000", "093820.977000", "093820.979000", "093820.982000", "093820.985000", "093820.987000", "093820.990000", "093820.993000", "093820.995000", "093820.998000", "093821.001000", "093900.950000", "093900.953000", "093900.955000", "093900.958000", "093900.961000", "093900.963000", "093900.966000", "093900.969000", "093900.971000", "093900.974000", "093900.976000", "093900.979000", "093900.982000", "093900.985000", "093900.987000", "093900.990000", "093900.993000", "093900.995000", "093900.998000", "093901.002000", "093940.950000", "093940.953000", "093940.955000", "093940.958000", "093940.961000", "093940.963000", "093940.966000", "093940.969000", "093940.971000", "093940.974000", "093940.977000", "093940.981000", "093940.984000", "093940.987000", "093940.989000", "093940.992000", "093940.995000", "093940.997000", "093941.001000", "093941.004000", "094020.950000", "094020.953000", "094020.955000", "094020.958000", "094020.961000", "094020.963000", "094020.966000", "094020.969000", "094020.971000", "094020.974000", "094020.985000", "094020.987000", "094020.994000", "094020.997000", "094021.000000", "094021.003000", "094021.006000", "094021.008000", "094021.011000", "094021.014000", "094100.950000", "094100.953000", "094100.955000", "094100.958000", "094100.961000", "094100.963000", "094100.966000", "094100.969000", "094100.972000", "094100.974000", "094100.977000", "094100.979000", "094100.982000", "094100.985000", "094100.988000", "094100.990000", "094100.993000", "094100.996000", "094100.998000", "094101.002000", "094140.950000", "094140.953000", "094140.955000", "094140.958000", "094140.961000", "094140.963000", "094140.966000", "094140.969000", "094140.971000", "094140.974000", "094140.977000", "094140.979000", "094140.982000", "094140.985000", "094140.987000", "094140.990000", "094140.993000", "094140.995000", "094140.998000", "094141.002000", "094220.950000", "094220.953000", "094220.956000", "094220.958000", "094220.961000", "094220.963000", "094220.966000", "094220.969000", "094220.972000", "094220.974000", "094220.977000", "094220.979000", "094220.982000", "094220.985000", "094220.987000", "094220.990000", "094220.993000", "094220.996000", "094220.998000", "094221.002000", "094300.950000", "094300.953000", "094300.955000", "094300.958000", "094300.961000", "094300.963000", "094300.966000", "094300.969000", "094300.971000", "094300.974000", "094300.977000", "094300.979000", "094300.982000", "094300.985000", "094300.987000", "094300.990000", "094300.993000", "094300.995000", "094300.998000", "094301.002000", "094340.950000", "094340.953000", "094340.955000", "094340.958000", "094340.961000", "094340.963000", "094340.966000", "094340.969000", "094340.971000", "094340.974000", "094340.977000", "094340.979000", "094340.982000", "094340.985000", "094340.988000", "094340.990000", "094340.993000", "094340.996000", "094340.998000", "094341.002000", "094420.950000", "094420.953000", "094420.955000", "094420.958000", "094420.961000", "094420.963000", "094420.966000", "094420.969000", "094420.971000", "094420.974000", "094420.977000", "094420.979000", "094420.982000", "094420.985000", "094420.987000", "094420.990000", "094420.993000", "094420.995000", "094420.998000", "094421.002000", "094500.950000", "094500.953000", "094500.955000", "094500.958000", "094500.961000", "094500.963000", "094500.966000", "094500.969000", "094500.971000", "094500.974000", "094500.977000", "094500.979000", "094500.982000", "094500.985000", "094500.987000", "094500.990000", "094500.992000", "094500.995000", "094500.998000", "094501.002000", "094540.950000", "094540.953000", "094540.955000", "094540.958000", "094540.961000", "094540.964000", "094540.966000", "094540.969000", "094540.972000", "094540.974000", "094540.977000", "094540.979000", "094540.982000", "094540.985000", "094540.987000", "094540.990000", "094540.993000", "094540.995000", "094540.998000", "094541.002000", "094620.950000", "094620.953000", "094620.955000", "094620.958000", "094620.961000", "094620.963000", "094620.966000", "094620.969000", "094620.971000", "094620.974000", "094620.977000", "094620.980000", "094620.982000", "094620.985000", "094620.988000", "094620.990000", "094620.993000", "094620.996000", "094620.998000", "094621.001000", "094700.950000", "094700.953000", "094700.955000", "094700.958000", "094700.961000", "094700.963000", "094700.966000", "094700.969000", "094700.972000", "094700.974000", "094700.977000", "094700.980000", "094700.982000", "094700.985000", "094700.988000", "094700.990000", "094700.993000", "094700.996000", "094701.000000", "094701.002000", "094712.733000", "094712.736000", "094712.739000", "094712.742000", "094712.744000", "094712.747000"],
      "DataSetTrailingPadding": [
        "\u0000\u0000\u0000\u0000\u0000\u0000\u0000\u0000\u0000\u0000\u0000\u0000\u0000\u0000\u0000\u0000\u0000\u0000\u0000\u0000\u0000\u0000\u0000\u0000\u0000\u0000\u0000\u0000\u0000\u0000\u0000\u0000\u0000\u0000\u0000\u0000\u0000\u0000\u0000\u0000\u0000\u0000\u0000\u0000\u0000\u0000\u0000\u0000\u0000\u0000\u0000\u0000\u0000\u0000\u0000\u0000\u0000\u0000\u0000\u0000\u0000\u0000\u0000\u0000\u0000\u0000\u0000\u0000\u0000\u0000\u0000\u0000\u0000\u0000\u0000\u0000\u0000\u0000\u0000\u0000\u0000\u0000\u0000\u0000\u0000\u0000\u0000\u0000\u0000\u0000\u0000\u0000\u0000\u0000\u0000\u0000\u0000\u0000\u0000\u0000\u0000\u0000\u0000\u0000\u0000\u0000\u0000\u0000\u0000\u0000\u0000\u0000\u0000\u0000\u0000\u0000\u0000\u0000\u0000\u0000\u0000\u0000\u0000\u0000\u0000\u0000\u0000\u0000\u0000\u0000\u0000\u0000\u0000\u0000\u0000\u0000\u0000\u0000\u0000\u0000\u0000\u0000\u0000\u0000\u0000\u0000\u0000\u0000\u0000\u0000\u0000\u0000\u0000\u0000\u0000\u0000\u0000\u0000\u0000\u0000\u0000\u0000\u0000\u0000\u0000\u0000\u0000\u0000\u0000\u0000\u0000\u0000\u0000\u0000\u0000\u0000\u0000\u0000\u0000\u0000\u0000\u0000\u0000\u0000\u0000\u0000\u0000\u0000\u0000\u0000\u0000\u0000\u0000\u0000\u0000\u0000\u0000\u0000\u0000\u0000\u0000\u0000\u0000\u0000\u0000\u0000\u0000\u0000\u0000\u0000\u0000\u0000\u0000\u0000\u0000\u0000\u0000\u0000\u0000\u0000\u0000\u0000\u0000\u0000\u0000\u0000\u0000\u0000\u0000\u0000\u0000\u0000\u0000\u0000\u0000\u0000\u0000\u0000\u0000\u0000\u0000\u0000\u0000\u0000\u0000\u0000\u0000\u0000\u0000\u0000\u0000\u0000\u0000\u0000\u0000\u0000",
        "\u0000\u0000\u0000\u0000\u0000\u0000\u0000\u0000\u0000\u0000\u0000\u0000\u0000\u0000\u0000\u0000\u0000\u0000\u0000\u0000\u0000\u0000\u0000\u0000\u0000\u0000\u0000\u0000\u0000\u0000\u0000\u0000\u0000\u0000\u0000\u0000\u0000\u0000\u0000\u0000\u0000\u0000\u0000\u0000\u0000\u0000\u0000\u0000\u0000\u0000\u0000\u0000\u0000\u0000\u0000\u0000\u0000\u0000\u0000\u0000\u0000\u0000\u0000\u0000\u0000\u0000\u0000\u0000\u0000\u0000\u0000\u0000\u0000\u0000\u0000\u0000\u0000\u0000\u0000\u0000\u0000\u0000\u0000\u0000\u0000\u0000\u0000\u0000\u0000\u0000\u0000\u0000\u0000\u0000\u0000\u0000\u0000\u0000\u0000\u0000\u0000\u0000\u0000\u0000\u0000\u0000\u0000\u0000\u0000\u0000\u0000\u0000\u0000\u0000\u0000\u0000\u0000\u0000\u0000\u0000\u0000\u0000\u0000\u0000\u0000\u0000\u0000\u0000\u0000\u0000\u0000\u0000\u0000\u0000\u0000\u0000\u0000\u0000\u0000\u0000\u0000\u0000\u0000\u0000\u0000\u0000\u0000\u0000\u0000\u0000\u0000\u0000\u0000\u0000\u0000\u0000\u0000\u0000\u0000\u0000\u0000\u0000\u0000\u0000\u0000\u0000\u0000\u0000\u0000\u0000\u0000\u0000\u0000\u0000\u0000\u0000\u0000\u0000\u0000\u0000\u0000\u0000\u0000\u0000\u0000\u0000\u0000\u0000\u0000\u0000\u0000\u0000\u0000\u0000\u0000\u0000\u0000\u0000\u0000\u0000\u0000\u0000\u0000\u0000\u0000\u0000\u0000\u0000\u0000\u0000\u0000\u0000\u0000\u0000\u0000\u0000\u0000\u0000\u0000\u0000\u0000\u0000\u0000\u0000\u0000\u0000\u0000\u0000\u0000\u0000\u0000\u0000\u0000\u0000\u0000\u0000\u0000\u0000\u0000\u0000\u0000\u0000\u0000\u0000\u0000\u0000\u0000\u0000\u0000\u0000\u0000\u0000\u0000\u0000\u0000\u0000\u0000\u0000",
        "\u0000\u0000\u0000\u0000\u0000\u0000\u0000\u0000\u0000\u0000\u0000\u0000\u0000\u0000\u0000\u0000\u0000\u0000\u0000\u0000\u0000\u0000\u0000\u0000\u0000\u0000\u0000\u0000\u0000\u0000\u0000\u0000\u0000\u0000\u0000\u0000\u0000\u0000\u0000\u0000\u0000\u0000\u0000\u0000\u0000\u0000\u0000\u0000\u0000\u0000\u0000\u0000\u0000\u0000\u0000\u0000\u0000\u0000\u0000\u0000\u0000\u0000\u0000\u0000\u0000\u0000\u0000\u0000\u0000\u0000\u0000\u0000\u0000\u0000\u0000\u0000\u0000\u0000\u0000\u0000\u0000\u0000\u0000\u0000\u0000\u0000\u0000\u0000\u0000\u0000\u0000\u0000\u0000\u0000\u0000\u0000\u0000\u0000\u0000\u0000\u0000\u0000\u0000\u0000\u0000\u0000\u0000\u0000\u0000\u0000\u0000\u0000\u0000\u0000\u0000\u0000\u0000\u0000\u0000\u0000\u0000\u0000\u0000\u0000\u0000\u0000\u0000\u0000\u0000\u0000\u0000\u0000\u0000\u0000\u0000\u0000\u0000\u0000\u0000\u0000\u0000\u0000\u0000\u0000\u0000\u0000\u0000\u0000\u0000\u0000\u0000\u0000\u0000\u0000\u0000\u0000\u0000\u0000\u0000\u0000\u0000\u0000\u0000\u0000\u0000\u0000\u0000\u0000\u0000\u0000\u0000\u0000\u0000\u0000\u0000\u0000\u0000\u0000\u0000\u0000\u0000\u0000\u0000\u0000\u0000\u0000\u0000\u0000\u0000\u0000\u0000\u0000\u0000\u0000\u0000\u0000\u0000\u0000\u0000\u0000\u0000\u0000\u0000\u0000\u0000\u0000\u0000\u0000\u0000\u0000\u0000\u0000\u0000\u0000\u0000\u0000\u0000\u0000\u0000\u0000\u0000\u0000\u0000\u0000\u0000\u0000\u0000\u0000\u0000\u0000\u0000\u0000\u0000\u0000\u0000\u0000\u0000\u0000\u0000\u0000\u0000\u0000\u0000\u0000\u0000\u0000\u0000\u0000\u0000\u0000\u0000\u0000\u0000\u0000\u0000\u0000\u0000\u0000",
        "\u0000\u0000\u0000\u0000\u0000\u0000\u0000\u0000\u0000\u0000\u0000\u0000\u0000\u0000\u0000\u0000\u0000\u0000\u0000\u0000\u0000\u0000\u0000\u0000\u0000\u0000\u0000\u0000\u0000\u0000\u0000\u0000\u0000\u0000\u0000\u0000\u0000\u0000\u0000\u0000\u0000\u0000\u0000\u0000\u0000\u0000\u0000\u0000\u0000\u0000\u0000\u0000\u0000\u0000\u0000\u0000\u0000\u0000\u0000\u0000\u0000\u0000\u0000\u0000\u0000\u0000\u0000\u0000\u0000\u0000\u0000\u0000\u0000\u0000\u0000\u0000\u0000\u0000\u0000\u0000\u0000\u0000\u0000\u0000\u0000\u0000\u0000\u0000\u0000\u0000\u0000\u0000\u0000\u0000\u0000\u0000\u0000\u0000\u0000\u0000\u0000\u0000\u0000\u0000\u0000\u0000\u0000\u0000\u0000\u0000\u0000\u0000\u0000\u0000\u0000\u0000\u0000\u0000\u0000\u0000\u0000\u0000\u0000\u0000\u0000\u0000\u0000\u0000\u0000\u0000\u0000\u0000\u0000\u0000\u0000\u0000\u0000\u0000\u0000\u0000\u0000\u0000\u0000\u0000\u0000\u0000\u0000\u0000\u0000\u0000\u0000\u0000\u0000\u0000\u0000\u0000\u0000\u0000\u0000\u0000\u0000\u0000\u0000\u0000\u0000\u0000\u0000\u0000\u0000\u0000\u0000\u0000\u0000\u0000\u0000\u0000\u0000\u0000\u0000\u0000\u0000\u0000\u0000\u0000\u0000\u0000\u0000\u0000\u0000\u0000\u0000\u0000\u0000\u0000\u0000\u0000\u0000\u0000\u0000\u0000\u0000\u0000\u0000\u0000\u0000\u0000\u0000\u0000\u0000\u0000\u0000\u0000\u0000\u0000\u0000\u0000\u0000\u0000\u0000\u0000\u0000\u0000\u0000\u0000\u0000\u0000\u0000\u0000\u0000\u0000\u0000\u0000\u0000\u0000\u0000\u0000\u0000\u0000\u0000\u0000\u0000\u0000\u0000\u0000\u0000\u0000\u0000\u0000\u0000\u0000\u0000\u0000\u0000\u0000\u0000\u0000\u0000\u0000",
