{
  "AcquisitionMatrixPE": 70,
  "AcquisitionNumber": 1,
  "AcquisitionTime": "13:14:9.090000",
  "BandwidthPerPixelPhaseEncode": 51.948,
  "BaseResolution": 70,
  "BodyPartExamined": "HEAD",
  "CoilCombinationMethod": "Sum of Squares",
  "ConsistencyInfo": "N4_VE11C_LATEST_20160120",
  "ConversionSoftware": "dcm2niix",
  "ConversionSoftwareVersion": "v1.0.20220720",
  "DerivedVendorReportedEchoSpacing": 0.000550001,
  "DeviceSerialNumber": "66061",
  "DwellTime": 3.3e-06,
  "EchoTime": 0.022,
  "EchoTrainLength": 35,
  "EffectiveEchoSpacing": 0.000275,
  "FlipAngle": 90,
  "HeudiconvVersion": "1.1.1",
  "ImageOrientationPatientDICOM": [0.997021, 0.0154295, 0.0755708, -0.00121807, 0.982814, -0.184593],
  "ImageOrientationText": "Tra>Cor(-10.6)>Sag(4.4)",
  "ImageType": [
    "ORIGINAL",
    "PRIMARY",
    "M",
    "ND",
    "NORM",
    "MOSAIC"
],
  "ImagingFrequency": 123.254,
  "InPlanePhaseEncodingDirectionDICOM": "COL",
  "InstitutionAddress": "Street StreetNo,City/1c4204/,District,KR,ZIP",
  "InstitutionName": "SKKU",
  "InstitutionalDepartmentName": "Department",
  "MRAcquisitionType": "2D",
  "MagneticFieldStrength": 3,
  "Manufacturer": "Siemens",
  "ManufacturersModelName": "Prisma",
  "MatrixCoilMode": "GRAPPA",
  "Modality": "MR",
  "NonlinearGradientCorrection": false,
  "ParallelReductionFactorInPlane": 2,
  "PartialFourier": 1,
  "PatientPosition": "HFS",
  "PercentPhaseFOV": 100,
  "PercentSampling": 100,
  "PhaseEncodingDirection": "j-",
  "PhaseEncodingSteps": 70,
  "PhaseResolution": 1,
  "PixelBandwidth": 2165,
  "ProcedureStepDescription": "Head^PI:Others",
  "ProtocolName": "BOLD_ep2d_3x3x3_dimension1",
  "PulseSequenceDetails": "%SiemensSeq%\\ep2d_pace",
  "ReceiveCoilActiveElements": "HC1-7",
  "ReceiveCoilName": "HeadNeck_64",
  "ReconMatrixPE": 70,
  "RefLinesPE": 24,
  "RepetitionTime": 2,
  "SAR": 0.122902,
  "ScanOptions": "FS",
  "ScanningSequence": "EP",
  "SequenceName": "*epfid2d1_70",
  "SequenceVariant": "SK",
  "SeriesDescription": "BOLD_ep2d_3x3x3_dimension1",
  "SeriesNumber": 8,
  "ShimSetting": [5056, 3731, 4458, 335, -73, -71, -30, 10],
  "SliceThickness": 3,
  "SliceTiming": [0.99, 0, 1.0375, 0.0475, 1.085, 0.095, 1.1325, 0.1425, 1.18, 0.19, 1.2275, 0.2375, 1.275, 0.285, 1.32, 0.33, 1.3675, 0.3775, 1.415, 0.425, 1.4625, 0.4725, 1.51, 0.52, 1.5575, 0.5675, 1.605, 0.615, 1.65, 0.66, 1.6975, 0.7075, 1.745, 0.755, 1.7925, 0.8025, 1.84, 0.85, 1.8875, 0.8975, 1.935, 0.945],
  "SoftwareVersions": "syngo MR E11",
  "SpacingBetweenSlices": 3,
  "StationName": "AWP66061",
  "TaskName": "dimension",
  "TotalReadoutTime": 0.018975,
  "TxRefAmp": 212.313,
  "dcmmeta_affine": [
    [-2.991063117980957, -0.003654220374301076, 0.23136067390441895, 108.22545623779297],
    [-0.046288419514894485, 2.9484426975250244, -0.5518540740013123, -89.11536407470703],
    [0.22671236097812653, 0.5537799000740051, 2.93971586227417, -65.27259063720703],
    [0.0, 0.0, 0.0, 1.0]
],
  "dcmmeta_reorient_transform": [
    [0.0, -1.0, 0.0, 69.0],
    [1.0, 0.0, 0.0, 0.0],
    [0.0, 0.0, -1.0, 41.0],
    [0.0, 0.0, 0.0, 1.0]
],
  "dcmmeta_shape": [70, 70, 42, 437],
  "dcmmeta_slice_dim": 2,
  "dcmmeta_version": 0.6,
  "global": {
    "const": {
      "AcquisitionMatrix": [70, 0, 0, 70],
      "AngioFlag": "N",
      "BitsAllocated": 16,
      "BitsStored": 12,
      "BodyPartExamined": "HEAD",
      "Columns": 490,
      "EchoNumbers": 1,
      "EchoTime": 22.0,
      "EchoTrainLength": 35,
      "FlipAngle": 90.0,
      "HighBit": 11,
      "ImageOrientationPatient": [0.99702105676285, 0.01542947302267, 0.07557078624533, -0.0012180734968, 0.98281423963187, -0.1845933007283],
      "ImagePositionPatient": [-744.814978696, -720.59470218823, 162.15075896043],
      "ImageType": [
        "ORIGINAL",
        "PRIMARY",
        "M",
        "ND",
        "NORM",
        "MOSAIC"
],
      "ImagedNucleus": "1H",
      "ImagingFrequency": 123.254401,
      "InPlanePhaseEncodingDirection": "COL",
      "MRAcquisitionType": "2D",
      "MagneticFieldStrength": 3.0,
      "Manufacturer": "SIEMENS",
      "ManufacturerModelName": "Prisma",
      "Modality": "MR",
      "NumberOfAverages": 1.0,
      "NumberOfPhaseEncodingSteps": 70,
      "PercentPhaseFieldOfView": 100.0,
      "PercentSampling": 100.0,
      "PerformedProcedureStepStartTime": "122105.139000",
      "PhotometricInterpretation": "MONOCHROME2",
      "PixelBandwidth": 2165.0,
      "PixelRepresentation": 0,
      "PixelSpacing": [3.0, 3.0],
      "ProtocolName": "BOLD_ep2d_3x3x3_dimension1",
      "RepetitionTime": 2000.0,
      "Rows": 490,
      "SAR": 0.12290245392702,
      "SamplesPerPixel": 1,
      "ScanOptions": "FS",
      "ScanningSequence": "EP",
      "SequenceName": "*epfid2d1_70",
      "SequenceVariant": "SK",
      "SeriesDescription": "BOLD_ep2d_3x3x3_dimension1",
      "SeriesNumber": 8,
      "SeriesTime": "131455.300000",
      "SliceLocation": 83.778309167766,
      "SliceThickness": 3.0,
      "SmallestImagePixelValue": 0,
      "SoftwareVersions": "syngo MR E11",
      "SpacingBetweenSlices": 3.0000000998449,
      "SpecificCharacterSet": "ISO_IR 100",
      "StudyID": "1",
      "StudyTime": "122105.056000",
      "TransmitCoilName": "Body",
      "VariableFlipAngleFlag": "N",
      "WindowCenterWidthExplanation": "Algo1",
      "dBdt": 0.0},
    "slices": {}
  },
  "time": {
    "samples": {
      "AcquisitionNumber": [1, 2, 3, 4, 5, 6, 7, 8, 9, 10, 11, 12, 13, 14, 15, 16, 17, 18, 19, 20, 21, 22, 23, 24, 25, 26, 27, 28, 29, 30, 31, 32, 33, 34, 35, 36, 37, 38, 39, 40, 41, 42, 43, 44, 45, 46, 47, 48, 49, 50, 51, 52, 53, 54, 55, 56, 57, 58, 59, 60, 61, 62, 63, 64, 65, 66, 67, 68, 69, 70, 71, 72, 73, 74, 75, 76, 77, 78, 79, 80, 81, 82, 83, 84, 85, 86, 87, 88, 89, 90, 91, 92, 93, 94, 95, 96, 97, 98, 99, 100, 101, 102, 103, 104, 105, 106, 107, 108, 109, 110, 111, 112, 113, 114, 115, 116, 117, 118, 119, 120, 121, 122, 123, 124, 125, 126, 127, 128, 129, 130, 131, 132, 133, 134, 135, 136, 137, 138, 139, 140, 141, 142, 143, 144, 145, 146, 147, 148, 149, 150, 151, 152, 153, 154, 155, 156, 157, 158, 159, 160, 161, 162, 163, 164, 165, 166, 167, 168, 169, 170, 171, 172, 173, 174, 175, 176, 177, 178, 179, 180, 181, 182, 183, 184, 185, 186, 187, 188, 189, 190, 191, 192, 193, 194, 195, 196, 197, 198, 199, 200, 201, 202, 203, 204, 205, 206, 207, 208, 209, 210, 211, 212, 213, 214, 215, 216, 217, 218, 219, 220, 221, 222, 223, 224, 225, 226, 227, 228, 229, 230, 231, 232, 233, 234, 235, 236, 237, 238, 239, 240, 241, 242, 243, 244, 245, 246, 247, 248, 249, 250, 251, 252, 253, 254, 255, 256, 257, 258, 259, 260, 261, 262, 263, 264, 265, 266, 267, 268, 269, 270, 271, 272, 273, 274, 275, 276, 277, 278, 279, 280, 281, 282, 283, 284, 285, 286, 287, 288, 289, 290, 291, 292, 293, 294, 295, 296, 297, 298, 299, 300, 301, 302, 303, 304, 305, 306, 307, 308, 309, 310, 311, 312, 313, 314, 315, 316, 317, 318, 319, 320, 321, 322, 323, 324, 325, 326, 327, 328, 329, 330, 331, 332, 333, 334, 335, 336, 337, 338, 339, 340, 341, 342, 343, 344, 345, 346, 347, 348, 349, 350, 351, 352, 353, 354, 355, 356, 357, 358, 359, 360, 361, 362, 363, 364, 365, 366, 367, 368, 369, 370, 371, 372, 373, 374, 375, 376, 377, 378, 379, 380, 381, 382, 383, 384, 385, 386, 387, 388, 389, 390, 391, 392, 393, 394, 395, 396, 397, 398, 399, 400, 401, 402, 403, 404, 405, 406, 407, 408, 409, 410, 411, 412, 413, 414, 415, 416, 417, 418, 419, 420, 421, 422, 423, 424, 425, 426, 427, 428, 429, 430, 431, 432, 433, 434, 435, 436, 437],
      "AcquisitionTime": ["131409.090000", "131411.090000", "131413.090000", "131415.090000", "131417.090000", "131419.090000", "131421.090000", "131423.090000", "131425.090000", "131427.090000", "131429.090000", "131431.090000", "131433.090000", "131435.090000", "131437.090000", "131439.090000", "131441.090000", "131443.090000", "131445.090000", "131447.090000", "131449.090000", "131451.090000", "131453.090000", "131455.090000", "131457.090000", "131459.090000", "131501.090000", "131503.090000", "131505.090000", "131507.090000", "131509.090000", "131511.090000", "131513.090000", "131515.090000", "131517.090000", "131519.090000", "131521.090000", "131523.090000", "131525.090000", "131527.090000", "131529.090000", "131531.090000", "131533.090000", "131535.090000", "131537.090000", "131539.090000", "131541.090000", "131543.090000", "131545.090000", "131547.090000", "131549.090000", "131551.090000", "131553.090000", "131555.090000", "131557.090000", "131559.090000", "131601.090000", "131603.090000", "131605.090000", "131607.090000", "131609.090000", "131611.090000", "131613.090000", "131615.090000", "131617.090000", "131619.090000", "131621.090000", "131623.090000", "131625.090000", "131627.090000", "131629.090000", "131631.090000", "131633.090000", "131635.090000", "131637.090000", "131639.090000", "131641.090000", "131643.090000", "131645.090000", "131647.090000", "131649.090000", "131651.090000", "131653.090000", "131655.090000", "131657.090000", "131659.090000", "131701.090000", "131703.090000", "131705.090000", "131707.090000", "131709.090000", "131711.090000", "131713.090000", "131715.090000", "131717.090000", "131719.090000", "131721.090000", "131723.090000", "131725.090000", "131727.090000", "131729.090000", "131731.090000", "131733.090000", "131735.090000", "131737.090000", "131739.090000", "131741.090000", "131743.090000", "131745.090000", "131747.090000", "131749.090000", "131751.090000", "131753.090000", "131755.090000", "131757.090000", "131759.090000", "131801.090000", "131803.090000", "131805.090000", "131807.090000", "131809.090000", "131811.090000", "131813.090000", "131815.090000", "131817.090000", "131819.090000", "131821.090000", "131823.090000", "131825.090000", "131827.090000", "131829.090000", "131831.090000", "131833.090000", "131835.090000", "131837.090000", "131839.090000", "131841.090000", "131843.090000", "131845.090000", "131847.090000", "131849.090000", "131851.090000", "131853.090000", "131855.090000", "131857.090000", "131859.090000", "131901.090000", "131903.090000", "131905.090000", "131907.090000", "131909.090000", "131911.090000", "131913.090000", "131915.090000", "131917.090000", "131919.090000", "131921.090000", "131923.090000", "131925.090000", "131927.090000", "131929.090000", "131931.090000", "131933.090000", "131935.090000", "131937.090000", "131939.090000", "131941.090000", "131943.090000", "131945.090000", "131947.090000", "131949.090000", "131951.090000", "131953.090000", "131955.090000", "131957.090000", "131959.090000", "132001.090000", "132003.090000", "132005.090000", "132007.090000", "132009.090000", "132011.090000", "132013.090000", "132015.090000", "132017.090000", "132019.090000", "132021.090000", "132023.090000", "132025.090000", "132027.090000", "132029.090000", "132031.090000", "132033.090000", "132035.090000", "132037.090000", "132039.090000", "132041.090000", "132043.090000", "132045.090000", "132047.090000", "132049.090000", "132051.090000", "132053.090000", "132055.090000", "132057.090000", "132059.090000", "132101.090000", "132103.090000", "132105.090000", "132107.090000", "132109.090000", "132111.090000", "132113.090000", "132115.090000", "132117.090000", "132119.090000", "132121.090000", "132123.090000", "132125.090000", "132127.090000", "132129.090000", "132131.090000", "132133.090000", "132135.090000", "132137.090000", "132139.090000", "132141.090000", "132143.090000", "132145.090000", "132147.090000", "132149.090000", "132151.090000", "132153.090000", "132155.090000", "132157.090000", "132159.090000", "132201.090000", "132203.090000", "132205.090000", "132207.090000", "132209.090000", "132211.090000", "132213.090000", "132215.090000", "132217.090000", "132219.090000", "132221.090000", "132223.090000", "132225.090000", "132227.090000", "132229.090000", "132231.090000", "132233.090000", "132235.090000", "132237.090000", "132239.090000", "132241.090000", "132243.090000", "132245.090000", "132247.090000", "132249.090000", "132251.090000", "132253.090000", "132255.090000", "132257.090000", "132259.090000", "132301.090000", "132303.090000", "132305.090000", "132307.090000", "132309.090000", "132311.090000", "132313.090000", "132315.090000", "132317.090000", "132319.090000", "132321.090000", "132323.090000", "132325.090000", "132327.090000", "132329.090000", "132331.090000", "132333.090000", "132335.090000", "132337.090000", "132339.090000", "132341.090000", "132343.090000", "132345.090000", "132347.090000", "132349.090000", "132351.090000", "132353.090000", "132355.090000", "132357.090000", "132359.090000", "132401.090000", "132403.090000", "132405.090000", "132407.090000", "132409.090000", "132411.090000", "132413.090000", "132415.090000", "132417.090000", "132419.090000", "132421.090000", "132423.090000", "132425.090000", "132427.090000", "132429.090000", "132431.090000", "132433.090000", "132435.090000", "132437.090000", "132439.090000", "132441.090000", "132443.090000", "132445.090000", "132447.090000", "132449.090000", "132451.090000", "132453.090000", "132455.090000", "132457.090000", "132459.090000", "132501.090000", "132503.090000", "132505.090000", "132507.090000", "132509.090000", "132511.090000", "132513.090000", "132515.090000", "132517.090000", "132519.090000", "132521.090000", "132523.090000", "132525.090000", "132527.090000", "132529.090000", "132531.090000", "132533.090000", "132535.090000", "132537.090000", "132539.090000", "132541.090000", "132543.090000", "132545.090000", "132547.090000", "132549.090000", "132551.090000", "132553.090000", "132555.090000", "132557.090000", "132559.090000", "132601.090000", "132603.090000", "132605.090000", "132607.090000", "132609.090000", "132611.090000", "132613.090000", "132615.090000", "132617.090000", "132619.090000", "132621.090000", "132623.090000", "132625.090000", "132627.090000", "132629.090000", "132631.090000", "132633.090000", "132635.090000", "132637.090000", "132639.090000", "132641.090000", "132643.090000", "132645.090000", "132647.090000", "132649.090000", "132651.090000", "132653.090000", "132655.090000", "132657.090000", "132659.090000", "132701.090000", "132703.090000", "132705.090000", "132707.090000", "132709.090000", "132711.090000", "132713.090000", "132715.090000", "132717.090000", "132719.090000", "132721.090000", "132723.090000", "132725.090000", "132727.090000", "132729.090000", "132731.090000", "132733.090000", "132735.090000", "132737.090000", "132739.090000", "132741.090000", "132743.090000", "132745.090000", "132747.090000", "132749.090000", "132751.090000", "132753.090000", "132755.090000", "132757.090000", "132759.090000", "132801.090000", "132803.090000", "132805.090000", "132807.090000", "132809.090000", "132811.090000", "132813.090000", "132815.090000", "132817.090000", "132819.090000", "132821.090000", "132823.090000", "132825.090000", "132827.090000", "132829.090000", "132831.090000", "132833.090000", "132835.090000", "132837.090000", "132839.090000", "132841.090000"],
      "ContentTime": ["131455.303000", "131455.307000", "131455.310000", "131455.312000", "131455.315000", "131455.317000", "131455.320000", "131455.323000", "131455.325000", "131455.328000", "131455.330000", "131455.333000", "131455.340000", "131455.343000", "131455.346000", "131455.348000", "131455.355000", "131455.357000", "131455.360000", "131455.363000", "131455.365000", "131455.368000", "131455.371000", "131535.299000", "131535.302000", "131535.304000", "131535.307000", "131535.310000", "131535.312000", "131535.315000", "131535.318000", "131535.321000", "131535.323000", "131535.326000", "131535.329000", "131535.331000", "131535.334000", "131535.337000", "131535.340000", "131535.342000", "131535.345000", "131535.348000", "131535.351000", "131555.299000", "131555.302000", "131555.304000", "131555.308000", "131555.310000", "131555.313000", "131555.316000", "131555.319000", "131555.321000", "131555.324000", "131635.300000", "131635.303000", "131635.305000", "131635.308000", "131635.311000", "131635.313000", "131635.316000", "131635.319000", "131635.321000", "131635.324000", "131635.327000", "131635.330000", "131635.332000", "131635.335000", "131635.338000", "131635.340000", "131635.343000", "131635.346000", "131635.349000", "131635.351000", "131715.299000", "131715.302000", "131715.304000", "131715.307000", "131715.310000", "131715.313000", "131715.315000", "131715.318000", "131715.321000", "131715.324000", "131715.326000", "131715.329000", "131715.332000", "131715.335000", "131715.337000", "131715.345000", "131715.348000", "131715.351000", "131715.354000", "131715.356000", "131755.299000", "131755.302000", "131755.304000", "131755.307000", "131755.310000", "131755.312000", "131755.315000", "131755.318000", "131755.320000", "131755.323000", "131755.326000", "131755.328000", "131755.331000", "131755.334000", "131755.336000", "131755.339000", "131755.347000", "131755.357000", "131755.360000", "131755.362000", "131835.300000", "131835.303000", "131835.305000", "131835.308000", "131835.311000", "131835.313000", "131835.316000", "131835.319000", "131835.322000", "131835.324000", "131835.327000", "131835.330000", "131835.333000", "131835.335000", "131835.338000", "131835.341000", "131835.343000", "131835.346000", "131835.349000", "131835.352000", "131915.299000", "131915.302000", "131915.304000", "131915.323000", "131915.326000", "131915.329000", "131915.331000", "131915.334000", "131915.337000", "131915.340000", "131915.342000", "131915.345000", "131915.347000", "131915.350000", "131915.353000", "131915.356000", "131915.358000", "131915.361000", "131915.364000", "131915.366000", "131955.299000", "131955.301000", "131955.304000", "131955.307000", "131955.310000", "131955.312000", "131955.315000", "131955.318000", "131955.320000", "131955.323000", "131955.341000", "131955.344000", "131955.346000", "131955.349000", "131955.352000", "131955.355000", "131955.357000", "131955.360000", "131955.363000", "131955.366000", "132035.300000", "132035.303000", "132035.305000", "132035.308000", "132035.311000", "132035.314000", "132035.316000", "132035.319000", "132035.322000", "132035.324000", "132035.327000", "132035.330000", "132035.333000", "132035.335000", "132035.338000", "132035.341000", "132035.343000", "132035.346000", "132035.349000", "132035.351000", "132115.300000", "132115.303000", "132115.318000", "132115.320000", "132115.323000", "132115.326000", "132115.328000", "132115.331000", "132115.334000", "132115.336000", "132115.339000", "132115.342000", "132115.344000", "132115.347000", "132115.350000", "132115.352000", "132115.355000", "132115.358000", "132115.360000", "132115.363000", "132155.299000", "132155.302000", "132155.304000", "132155.307000", "132155.310000", "132155.312000", "132155.315000", "132155.318000", "132155.320000", "132155.323000", "132155.326000", "132155.328000", "132155.331000", "132155.334000", "132155.336000", "132155.339000", "132155.342000", "132155.345000", "132155.347000", "132155.350000", "132235.299000", "132235.302000", "132235.304000", "132235.307000", "132235.310000", "132235.312000", "132235.315000", "132235.318000", "132235.320000", "132235.323000", "132235.326000", "132235.328000", "132235.331000", "132235.333000", "132235.336000", "132235.339000", "132235.341000", "132235.344000", "132235.347000", "132235.349000", "132315.300000", "132315.303000", "132315.305000", "132315.308000", "132315.311000", "132315.313000", "132315.316000", "132315.319000", "132315.321000", "132315.324000", "132315.327000", "132315.330000", "132315.332000", "132315.335000", "132315.338000", "132315.354000", "132315.356000", "132315.359000", "132315.361000", "132315.364000", "132355.299000", "132355.301000", "132355.304000", "132355.307000", "132355.310000", "132355.312000", "132355.315000", "132355.318000", "132355.320000", "132355.323000", "132355.326000", "132355.328000", "132355.331000", "132355.334000", "132355.336000", "132355.339000", "132355.342000", "132355.345000", "132355.347000", "132355.350000", "132435.299000", "132435.301000", "132435.304000", "132435.307000", "132435.309000", "132435.312000", "132435.315000", "132435.317000", "132435.320000", "132435.323000", "132435.325000", "132435.328000", "132435.330000", "132435.333000", "132435.336000", "132435.339000", "132435.342000", "132435.344000", "132435.347000", "132435.350000", "132515.300000", "132515.302000", "132515.305000", "132515.308000", "132515.310000", "132515.313000", "132515.316000", "132515.318000", "132515.321000", "132515.324000", "132515.327000", "132515.329000", "132515.332000", "132515.334000", "132515.337000", "132515.340000", "132515.343000", "132515.345000", "132515.348000", "132515.351000", "132555.300000", "132555.303000", "132555.305000", "132555.308000", "132555.311000", "132555.313000", "132555.316000", "132555.319000", "132555.321000", "132555.324000", "132555.327000", "132555.329000", "132555.332000", "132555.335000", "132555.337000", "132555.340000", "132555.345000", "132555.347000", "132555.350000", "132555.353000", "132635.299000", "132635.302000", "132635.305000", "132635.307000", "132635.325000", "132635.328000", "132635.331000", "132635.333000", "132635.336000", "132635.339000", "132635.341000", "132635.344000", "132635.347000", "132635.349000", "132635.352000", "132635.355000", "132635.358000", "132635.360000", "132635.363000", "132635.366000", "132715.299000", "132715.302000", "132715.304000", "132715.307000", "132715.310000", "132715.313000", "132715.315000", "132715.318000", "132715.320000", "132715.323000", "132715.326000", "132715.329000", "132715.331000", "132715.334000", "132715.337000", "132715.339000", "132715.342000", "132715.345000", "132715.347000", "132715.350000", "132755.300000", "132755.303000", "132755.305000", "132755.308000", "132755.311000", "132755.313000", "132755.316000", "132755.319000", "132755.321000", "132755.324000", "132755.327000", "132755.330000", "132755.332000", "132755.335000", "132755.338000", "132755.340000", "132755.343000", "132755.346000", "132755.349000", "132755.351000", "132835.299000", "132835.302000", "132835.304000", "132835.307000", "132835.310000", "132835.312000", "132835.315000", "132835.318000", "132835.320000", "132835.323000", "132835.326000", "132835.328000", "132835.331000", "132835.334000", "132835.337000", "132835.339000", "132835.342000", "132835.345000", "132835.347000", "132835.350000", "132842.186000", "132842.189000", "132842.192000", "132842.195000"],
      "DataSetTrailingPadding": [
        "\u0000\u0000\u0000\u0000\u0000\u0000\u0000\u0000\u0000\u0000\u0000\u0000\u0000\u0000\u0000\u0000\u0000\u0000\u0000\u0000\u0000\u0000\u0000\u0000\u0000\u0000\u0000\u0000\u0000\u0000\u0000\u0000\u0000\u0000\u0000\u0000\u0000\u0000\u0000\u0000\u0000\u0000\u0000\u0000\u0000\u0000\u0000\u0000\u0000\u0000\u0000\u0000\u0000\u0000\u0000\u0000\u0000\u0000\u0000\u0000\u0000\u0000\u0000\u0000\u0000\u0000\u0000\u0000\u0000\u0000\u0000\u0000\u0000\u0000\u0000\u0000\u0000\u0000\u0000\u0000\u0000\u0000\u0000\u0000\u0000\u0000\u0000\u0000\u0000\u0000\u0000\u0000\u0000\u0000\u0000\u0000\u0000\u0000\u0000\u0000\u0000\u0000\u0000\u0000\u0000\u0000\u0000\u0000\u0000\u0000\u0000\u0000\u0000\u0000\u0000\u0000\u0000\u0000\u0000\u0000\u0000\u0000\u0000\u0000\u0000\u0000\u0000\u0000\u0000\u0000\u0000\u0000\u0000\u0000\u0000\u0000\u0000\u0000\u0000\u0000\u0000\u0000\u0000\u0000\u0000\u0000\u0000\u0000\u0000\u0000\u0000\u0000\u0000\u0000\u0000\u0000\u0000\u0000\u0000\u0000\u0000\u0000\u0000\u0000\u0000\u0000\u0000\u0000\u0000\u0000\u0000\u0000\u0000\u0000\u0000\u0000\u0000\u0000\u0000\u0000\u0000\u0000\u0000\u0000\u0000\u0000\u0000\u0000\u0000\u0000\u0000\u0000\u0000\u0000\u0000\u0000\u0000\u0000\u0000\u0000\u0000\u0000\u0000\u0000\u0000\u0000\u0000\u0000\u0000\u0000\u0000\u0000\u0000\u0000\u0000\u0000\u0000\u0000\u0000\u0000\u0000\u0000\u0000\u0000\u0000\u0000\u0000\u0000\u0000\u0000\u0000\u0000\u0000\u0000\u0000\u0000\u0000\u0000\u0000\u0000\u0000\u0000\u0000\u0000\u0000\u0000\u0000\u0000\u0000\u0000\u0000\u0000\u0000\u0000\u0000\u0000\u0000\u0000\u0000\u0000\u0000\u0000\u0000\u0000\u0000\u0000\u0000\u0000\u0000\u0000\u0000\u0000\u0000\u0000\u0000\u0000\u0000\u0000\u0000\u0000\u0000\u0000\u0000\u0000\u0000\u0000\u0000\u0000\u0000\u0000\u0000\u0000\u0000\u0000\u0000\u0000\u0000\u0000\u0000\u0000\u0000\u0000\u0000\u0000\u0000\u0000\u0000\u0000\u0000\u0000\u0000\u0000\u0000\u0000",
        "\u0000\u0000\u0000\u0000\u0000\u0000\u0000\u0000\u0000\u0000\u0000\u0000\u0000\u0000\u0000\u0000\u0000\u0000\u0000\u0000\u0000\u0000\u0000\u0000\u0000\u0000\u0000\u0000\u0000\u0000\u0000\u0000\u0000\u0000\u0000\u0000\u0000\u0000\u0000\u0000\u0000\u0000\u0000\u0000\u0000\u0000\u0000\u0000\u0000\u0000\u0000\u0000\u0000\u0000\u0000\u0000\u0000\u0000\u0000\u0000\u0000\u0000\u0000\u0000\u0000\u0000\u0000\u0000\u0000\u0000\u0000\u0000\u0000\u0000\u0000\u0000\u0000\u0000\u0000\u0000\u0000\u0000\u0000\u0000\u0000\u0000\u0000\u0000\u0000\u0000\u0000\u0000\u0000\u0000\u0000\u0000\u0000\u0000\u0000\u0000\u0000\u0000\u0000\u0000\u0000\u0000\u0000\u0000\u0000\u0000\u0000\u0000\u0000\u0000\u0000\u0000\u0000\u0000\u0000\u0000\u0000\u0000\u0000\u0000\u0000\u0000\u0000\u0000\u0000\u0000\u0000\u0000\u0000\u0000\u0000\u0000\u0000\u0000\u0000\u0000\u0000\u0000\u0000\u0000\u0000\u0000\u0000\u0000\u0000\u0000\u0000\u0000\u0000\u0000\u0000\u0000\u0000\u0000\u0000\u0000\u0000\u0000\u0000\u0000\u0000\u0000\u0000\u0000\u0000\u0000\u0000\u0000\u0000\u0000\u0000\u0000\u0000\u0000\u0000\u0000\u0000\u0000\u0000\u0000\u0000\u0000\u0000\u0000\u0000\u0000\u0000\u0000\u0000\u0000\u0000\u0000\u0000\u0000\u0000\u0000\u0000\u0000\u0000\u0000\u0000\u0000\u0000\u0000\u0000\u0000\u0000\u0000\u0000\u0000\u0000\u0000\u0000\u0000\u0000\u0000\u0000\u0000\u0000\u0000\u0000\u0000\u0000\u0000\u0000\u0000\u0000\u0000\u0000\u0000\u0000\u0000\u0000\u0000\u0000\u0000\u0000\u0000\u0000\u0000\u0000\u0000\u0000\u0000\u0000\u0000\u0000\u0000\u0000\u0000\u0000\u0000\u0000\u0000\u0000\u0000\u0000\u0000\u0000\u0000\u0000\u0000\u0000\u0000\u0000\u0000\u0000\u0000\u0000\u0000\u0000\u0000\u0000\u0000\u0000\u0000\u0000\u0000\u0000\u0000\u0000\u0000\u0000\u0000\u0000\u0000\u0000\u0000\u0000\u0000\u0000\u0000\u0000\u0000\u0000\u0000\u0000\u0000\u0000\u0000\u0000\u0000\u0000\u0000\u0000\u0000\u0000\u0000",
        "\u0000\u0000\u0000\u0000\u0000\u0000\u0000\u0000\u0000\u0000\u0000\u0000\u0000\u0000\u0000\u0000\u0000\u0000\u0000\u0000\u0000\u0000\u0000\u0000\u0000\u0000\u0000\u0000\u0000\u0000\u0000\u0000\u0000\u0000\u0000\u0000\u0000\u0000\u0000\u0000\u0000\u0000\u0000\u0000\u0000\u0000\u0000\u0000\u0000\u0000\u0000\u0000\u0000\u0000\u0000\u0000\u0000\u0000\u0000\u0000\u0000\u0000\u0000\u0000\u0000\u0000\u0000\u0000\u0000\u0000\u0000\u0000\u0000\u0000\u0000\u0000\u0000\u0000\u0000\u0000\u0000\u0000\u0000\u0000\u0000\u0000\u0000\u0000\u0000\u0000\u0000\u0000\u0000\u0000\u0000\u0000\u0000\u0000\u0000\u0000\u0000\u0000\u0000\u0000\u0000\u0000\u0000\u0000\u0000\u0000\u0000\u0000\u0000\u0000\u0000\u0000\u0000\u0000\u0000\u0000\u0000\u0000\u0000\u0000\u0000\u0000\u0000\u0000\u0000\u0000\u0000\u0000\u0000\u0000\u0000\u0000\u0000\u0000\u0000\u0000\u0000\u0000\u0000\u0000\u0000\u0000\u0000\u0000\u0000\u0000\u0000\u0000\u0000\u0000\u0000\u0000\u0000\u0000\u0000\u0000\u0000\u0000\u0000\u0000\u0000\u0000\u0000\u0000\u0000\u0000\u0000\u0000\u0000\u0000\u0000\u0000\u0000\u0000\u0000\u0000\u0000\u0000\u0000\u0000\u0000\u0000\u0000\u0000\u0000\u0000\u0000\u0000\u0000\u0000\u0000\u0000\u0000\u0000\u0000\u0000\u0000\u0000\u0000\u0000\u0000\u0000\u0000\u0000\u0000\u0000\u0000\u0000\u0000\u0000\u0000\u0000\u0000\u0000\u0000\u0000\u0000\u0000\u0000\u0000\u0000\u0000\u0000\u0000\u0000\u0000\u0000\u0000\u0000\u0000\u0000\u0000\u0000\u0000\u0000\u0000\u0000\u0000\u0000\u0000\u0000\u0000\u0000\u0000\u0000\u0000\u0000\u0000\u0000\u0000\u0000\u0000\u0000\u0000\u0000\u0000\u0000\u0000\u0000\u0000\u0000\u0000\u0000\u0000\u0000\u0000\u0000\u0000\u0000\u0000\u0000\u0000\u0000\u0000\u0000\u0000\u0000\u0000\u0000\u0000\u0000\u0000\u0000\u0000\u0000\u0000\u0000\u0000\u0000\u0000\u0000\u0000\u0000\u0000\u0000\u0000\u0000\u0000\u0000\u0000\u0000\u0000\u0000\u0000\u0000\u0000\u0000\u0000",
        "\u0000\u0000\u0000\u0000\u0000\u0000\u0000\u0000\u0000\u0000\u0000\u0000\u0000\u0000\u0000\u0000\u0000\u0000\u0000\u0000\u0000\u0000\u0000\u0000\u0000\u0000\u0000\u0000\u0000\u0000\u0000\u0000\u0000\u0000\u0000\u0000\u0000\u0000\u0000\u0000\u0000\u0000\u0000\u0000\u0000\u0000\u0000\u0000\u0000\u0000\u0000\u0000\u0000\u0000\u0000\u0000\u0000\u0000\u0000\u0000\u0000\u0000\u0000\u0000\u0000\u0000\u0000\u0000\u0000\u0000\u0000\u0000\u0000\u0000\u0000\u0000\u0000\u0000\u0000\u0000\u0000\u0000\u0000\u0000\u0000\u0000\u0000\u0000\u0000\u0000\u0000\u0000\u0000\u0000\u0000\u0000\u0000\u0000\u0000\u0000\u0000\u0000\u0000\u0000\u0000\u0000\u0000\u0000\u0000\u0000\u0000\u0000\u0000\u0000\u0000\u0000\u0000\u0000\u0000\u0000\u0000\u0000\u0000\u0000\u0000\u0000\u0000\u0000\u0000\u0000\u0000\u0000\u0000\u0000\u0000\u0000\u0000\u0000\u0000\u0000\u0000\u0000\u0000\u0000\u0000\u0000\u0000\u0000\u0000\u0000\u0000\u0000\u0000\u0000\u0000\u0000\u0000\u0000\u0000\u0000\u0000\u0000\u0000\u0000\u0000\u0000\u0000\u0000\u0000\u0000\u0000\u0000\u0000\u0000\u0000\u0000\u0000\u0000\u0000\u0000\u0000\u0000\u0000\u0000\u0000\u0000\u0000\u0000\u0000\u0000\u0000\u0000\u0000\u0000\u0000\u0000\u0000\u0000\u0000\u0000\u0000\u0000\u0000\u0000\u0000\u0000\u0000\u0000\u0000\u0000\u0000\u0000\u0000\u0000\u0000\u0000\u0000\u0000\u0000\u0000\u0000\u0000\u0000\u0000\u0000\u0000\u0000\u0000\u0000\u0000\u0000\u0000\u0000\u0000\u0000\u0000\u0000\u0000\u0000\u0000\u0000\u0000\u0000\u0000\u0000\u0000\u0000\u0000\u0000\u0000\u0000\u0000\u0000\u0000\u0000\u0000\u0000\u0000\u0000\u0000\u0000\u0000\u0000\u0000\u0000\u0000\u0000\u0000\u0000\u0000\u0000\u0000\u0000\u0000\u0000\u0000\u0000\u0000\u0000\u0000\u0000\u0000\u0000\u0000\u0000\u0000\u0000\u0000\u0000\u0000\u0000\u0000\u0000\u0000\u0000\u0000\u0000\u0000\u0000\u0000\u0000\u0000\u0000\u0000\u0000\u0000\u0000\u0000\u0000\u0000\u0000\u0000",
