{
  "AcquisitionMatrixPE": 70,
  "AcquisitionNumber": 1,
  "AcquisitionTime": "10:29:45.005000",
  "BandwidthPerPixelPhaseEncode": 51.948,
  "BaseResolution": 70,
  "BodyPartExamined": "HEAD",
  "CoilCombinationMethod": "Sum of Squares",
  "ConsistencyInfo": "N4_VE11C_LATEST_20160120",
  "ConversionSoftware": "dcm2niix",
  "ConversionSoftwareVersion": "v1.0.20220720",
  "DerivedVendorReportedEchoSpacing": 0.000550001,
  "DeviceSerialNumber": "66061",
  "DwellTime": 3.3e-06,
  "EchoTime": 0.022,
  "EchoTrainLength": 35,
  "EffectiveEchoSpacing": 0.000275,
  "FlipAngle": 90,
  "HeudiconvVersion": "1.1.1",
  "ImageOrientationPatientDICOM": [0.999998, 0.00151649, 0.00146153, -0.00122175, 0.982934, -0.183954],
  "ImageOrientationText": "Tra>Cor(-10.6)>Sag(0.1)",
  "ImageType": [
    "ORIGINAL",
    "PRIMARY",
    "M",
    "ND",
    "NORM",
    "MOSAIC"
],
  "ImagingFrequency": 123.254,
  "InPlanePhaseEncodingDirectionDICOM": "COL",
  "InstitutionAddress": "Street StreetNo,City/1c4204/,District,KR,ZIP",
  "InstitutionName": "SKKU",
  "InstitutionalDepartmentName": "Department",
  "MRAcquisitionType": "2D",
  "MagneticFieldStrength": 3,
  "Manufacturer": "Siemens",
  "ManufacturersModelName": "Prisma",
  "MatrixCoilMode": "GRAPPA",
  "Modality": "MR",
  "NonlinearGradientCorrection": false,
  "ParallelReductionFactorInPlane": 2,
  "PartialFourier": 1,
  "PatientPosition": "HFS",
  "PercentPhaseFOV": 100,
  "PercentSampling": 100,
  "PhaseEncodingDirection": "j-",
  "PhaseEncodingSteps": 70,
  "PhaseResolution": 1,
  "PixelBandwidth": 2165,
  "ProcedureStepDescription": "Head^PI:Others",
  "ProtocolName": "BOLD_ep2d_3x3x3_dimension1",
  "PulseSequenceDetails": "%SiemensSeq%\\ep2d_pace",
  "ReceiveCoilActiveElements": "HC1-7",
  "ReceiveCoilName": "HeadNeck_64",
  "ReconMatrixPE": 70,
  "RefLinesPE": 24,
  "RepetitionTime": 2,
  "SAR": 0.12727,
  "ScanOptions": "FS",
  "ScanningSequence": "EP",
  "SequenceName": "*epfid2d1_70",
  "SequenceVariant": "SK",
  "SeriesDescription": "BOLD_ep2d_3x3x3_dimension1",
  "SeriesNumber": 4,
  "ShimSetting": [5047, 3750, 4423, 257, -23, -44, -6, 75],
  "SliceThickness": 3,
  "SliceTiming": [0.99, 0, 1.0375, 0.0475, 1.085, 0.095, 1.1325, 0.1425, 1.18, 0.19, 1.225, 0.2375, 1.2725, 0.2825, 1.32, 0.33, 1.3675, 0.3775, 1.415, 0.425, 1.4625, 0.4725, 1.51, 0.52, 1.555, 0.5675, 1.6025, 0.6125, 1.65, 0.66, 1.6975, 0.7075, 1.745, 0.755, 1.7925, 0.8025, 1.84, 0.85, 1.885, 0.8975, 1.9325, 0.9425],
  "SoftwareVersions": "syngo MR E11",
  "SpacingBetweenSlices": 3,
  "StationName": "AWP66061",
  "TaskName": "dimension",
  "TotalReadoutTime": 0.018975,
  "TxRefAmp": 239.372,
  "dcmmeta_affine": [
    [-2.999993324279785, -0.0036652612034231424, 0.005146656185388565, 106.35585021972656],
    [-0.004549454897642136, 2.9488024711608887, -0.5518540143966675, -88.17882537841797],
    [0.0043845949694514275, 0.5518606305122375, 2.9488015174865723, -60.61039733886719],
    [0.0, 0.0, 0.0, 1.0]
],
  "dcmmeta_reorient_transform": [
    [0.0, -1.0, 0.0, 69.0],
    [1.0, 0.0, 0.0, 0.0],
    [0.0, 0.0, -1.0, 41.0],
    [0.0, 0.0, 0.0, 1.0]
],
  "dcmmeta_shape": [70, 70, 42, 437],
  "dcmmeta_slice_dim": 2,
  "dcmmeta_version": 0.6,
  "global": {
    "const": {
      "AcquisitionMatrix": [70, 0, 0, 70],
      "AngioFlag": "N",
      "BitsAllocated": 16,
      "BitsStored": 12,
      "BodyPartExamined": "HEAD",
      "Columns": 490,
      "EchoNumbers": 1,
      "EchoTime": 22.0,
      "EchoTrainLength": 35,
      "FlipAngle": 90.0,
      "HighBit": 11,
      "ImageOrientationPatient": [0.99999778209676, 0.00151648502008, 0.00146153164525, -0.0012217537537, 0.98293418054735, -0.1839535376922],
      "ImagePositionPatient": [-735.54286008499, -712.86645098406, 213.33880828239],
      "ImageType": [
        "ORIGINAL",
        "PRIMARY",
        "M",
        "ND",
        "NORM",
        "MOSAIC"
],
      "ImagedNucleus": "1H",
      "ImagingFrequency": 123.254466,
      "InPlanePhaseEncodingDirection": "COL",
      "MRAcquisitionType": "2D",
      "MagneticFieldStrength": 3.0,
      "Manufacturer": "SIEMENS",
      "ManufacturerModelName": "Prisma",
      "Modality": "MR",
      "NumberOfAverages": 1.0,
      "NumberOfPhaseEncodingSteps": 70,
      "PercentPhaseFieldOfView": 100.0,
      "PercentSampling": 100.0,
      "PerformedProcedureStepStartTime": "102256.076000",
      "PhotometricInterpretation": "MONOCHROME2",
      "PixelBandwidth": 2165.0,
      "PixelRepresentation": 0,
      "PixelSpacing": [3.0, 3.0],
      "ProtocolName": "BOLD_ep2d_3x3x3_dimension1",
      "RepetitionTime": 2000.0,
      "Rows": 490,
      "SAR": 0.12727011790968,
      "SamplesPerPixel": 1,
      "ScanOptions": "FS",
      "ScanningSequence": "EP",
      "SequenceName": "*epfid2d1_70",
      "SequenceVariant": "SK",
      "SeriesDescription": "BOLD_ep2d_3x3x3_dimension1",
      "SeriesNumber": 4,
      "SeriesTime": "103006.739000",
      "SliceLocation": 79.827057243391,
      "SliceThickness": 3.0,
      "SmallestImagePixelValue": 0,
      "SoftwareVersions": "syngo MR E11",
      "SpacingBetweenSlices": 2.999999902757,
      "SpecificCharacterSet": "ISO_IR 100",
      "StudyID": "1",
      "StudyTime": "102256.012000",
      "TransmitCoilName": "Body",
      "VariableFlipAngleFlag": "N",
      "WindowCenterWidthExplanation": "Algo1",
      "dBdt": 0.0},
    "slices": {}
  },
  "time": {
    "samples": {
      "AcquisitionNumber": [1, 2, 3, 4, 5, 6, 7, 8, 9, 10, 11, 12, 13, 14, 15, 16, 17, 18, 19, 20, 21, 22, 23, 24, 25, 26, 27, 28, 29, 30, 31, 32, 33, 34, 35, 36, 37, 38, 39, 40, 41, 42, 43, 44, 45, 46, 47, 48, 49, 50, 51, 52, 53, 54, 55, 56, 57, 58, 59, 60, 61, 62, 63, 64, 65, 66, 67, 68, 69, 70, 71, 72, 73, 74, 75, 76, 77, 78, 79, 80, 81, 82, 83, 84, 85, 86, 87, 88, 89, 90, 91, 92, 93, 94, 95, 96, 97, 98, 99, 100, 101, 102, 103, 104, 105, 106, 107, 108, 109, 110, 111, 112, 113, 114, 115, 116, 117, 118, 119, 120, 121, 122, 123, 124, 125, 126, 127, 128, 129, 130, 131, 132, 133, 134, 135, 136, 137, 138, 139, 140, 141, 142, 143, 144, 145, 146, 147, 148, 149, 150, 151, 152, 153, 154, 155, 156, 157, 158, 159, 160, 161, 162, 163, 164, 165, 166, 167, 168, 169, 170, 171, 172, 173, 174, 175, 176, 177, 178, 179, 180, 181, 182, 183, 184, 185, 186, 187, 188, 189, 190, 191, 192, 193, 194, 195, 196, 197, 198, 199, 200, 201, 202, 203, 204, 205, 206, 207, 208, 209, 210, 211, 212, 213, 214, 215, 216, 217, 218, 219, 220, 221, 222, 223, 224, 225, 226, 227, 228, 229, 230, 231, 232, 233, 234, 235, 236, 237, 238, 239, 240, 241, 242, 243, 244, 245, 246, 247, 248, 249, 250, 251, 252, 253, 254, 255, 256, 257, 258, 259, 260, 261, 262, 263, 264, 265, 266, 267, 268, 269, 270, 271, 272, 273, 274, 275, 276, 277, 278, 279, 280, 281, 282, 283, 284, 285, 286, 287, 288, 289, 290, 291, 292, 293, 294, 295, 296, 297, 298, 299, 300, 301, 302, 303, 304, 305, 306, 307, 308, 309, 310, 311, 312, 313, 314, 315, 316, 317, 318, 319, 320, 321, 322, 323, 324, 325, 326, 327, 328, 329, 330, 331, 332, 333, 334, 335, 336, 337, 338, 339, 340, 341, 342, 343, 344, 345, 346, 347, 348, 349, 350, 351, 352, 353, 354, 355, 356, 357, 358, 359, 360, 361, 362, 363, 364, 365, 366, 367, 368, 369, 370, 371, 372, 373, 374, 375, 376, 377, 378, 379, 380, 381, 382, 383, 384, 385, 386, 387, 388, 389, 390, 391, 392, 393, 394, 395, 396, 397, 398, 399, 400, 401, 402, 403, 404, 405, 406, 407, 408, 409, 410, 411, 412, 413, 414, 415, 416, 417, 418, 419, 420, 421, 422, 423, 424, 425, 426, 427, 428, 429, 430, 431, 432, 433, 434, 435, 436, 437],
      "AcquisitionTime": ["102945.005000", "102947.005000", "102949.005000", "102951.005000", "102953.005000", "102955.005000", "102957.005000", "102959.005000", "103001.005000", "103003.005000", "103005.005000", "103007.005000", "103009.005000", "103011.005000", "103013.005000", "103015.005000", "103017.005000", "103019.005000", "103021.005000", "103023.005000", "103025.005000", "103027.005000", "103029.005000", "103031.005000", "103033.005000", "103035.005000", "103037.005000", "103039.005000", "103041.005000", "103043.005000", "103045.005000", "103047.005000", "103049.005000", "103051.005000", "103053.005000", "103055.005000", "103057.005000", "103059.005000", "103101.005000", "103103.005000", "103105.005000", "103107.005000", "103109.005000", "103111.005000", "103113.005000", "103115.005000", "103117.005000", "103119.005000", "103121.005000", "103123.005000", "103125.005000", "103127.005000", "103129.005000", "103131.005000", "103133.005000", "103135.005000", "103137.005000", "103139.005000", "103141.005000", "103143.005000", "103145.005000", "103147.005000", "103149.005000", "103151.005000", "103153.005000", "103155.005000", "103157.005000", "103159.005000", "103201.005000", "103203.005000", "103205.005000", "103207.005000", "103209.005000", "103211.005000", "103213.005000", "103215.005000", "103217.005000", "103219.005000", "103221.005000", "103223.005000", "103225.005000", "103227.005000", "103229.005000", "103231.005000", "103233.005000", "103235.005000", "103237.005000", "103239.005000", "103241.005000", "103243.005000", "103245.005000", "103247.005000", "103249.005000", "103251.005000", "103253.005000", "103255.005000", "103257.005000", "103259.005000", "103301.005000", "103303.005000", "103305.005000", "103307.005000", "103309.005000", "103311.005000", "103313.005000", "103315.005000", "103317.005000", "103319.005000", "103321.005000", "103323.005000", "103325.005000", "103327.005000", "103329.005000", "103331.005000", "103333.005000", "103335.005000", "103337.005000", "103339.005000", "103341.005000", "103343.005000", "103345.005000", "103347.005000", "103349.005000", "103351.005000", "103353.005000", "103355.005000", "103357.005000", "103359.005000", "103401.005000", "103403.005000", "103405.005000", "103407.005000", "103409.005000", "103411.005000", "103413.005000", "103415.005000", "103417.005000", "103419.005000", "103421.005000", "103423.005000", "103425.005000", "103427.005000", "103429.005000", "103431.005000", "103433.005000", "103435.005000", "103437.005000", "103439.005000", "103441.005000", "103443.005000", "103445.005000", "103447.005000", "103449.005000", "103451.005000", "103453.005000", "103455.005000", "103457.005000", "103459.005000", "103501.005000", "103503.005000", "103505.005000", "103507.005000", "103509.005000", "103511.005000", "103513.005000", "103515.005000", "103517.005000", "103519.005000", "103521.005000", "103523.005000", "103525.005000", "103527.005000", "103529.005000", "103531.005000", "103533.005000", "103535.005000", "103537.005000", "103539.005000", "103541.005000", "103543.005000", "103545.005000", "103547.005000", "103549.005000", "103551.005000", "103553.005000", "103555.005000", "103557.005000", "103559.005000", "103601.005000", "103603.005000", "103605.005000", "103607.005000", "103609.005000", "103611.005000", "103613.005000", "103615.005000", "103617.005000", "103619.005000", "103621.005000", "103623.005000", "103625.005000", "103627.005000", "103629.005000", "103631.005000", "103633.005000", "103635.005000", "103637.005000", "103639.005000", "103641.005000", "103643.005000", "103645.005000", "103647.005000", "103649.005000", "103651.005000", "103653.005000", "103655.005000", "103657.005000", "103659.005000", "103701.005000", "103703.005000", "103705.005000", "103707.005000", "103709.005000", "103711.005000", "103713.005000", "103715.005000", "103717.005000", "103719.005000", "103721.005000", "103723.005000", "103725.005000", "103727.005000", "103729.005000", "103731.005000", "103733.005000", "103735.005000", "103737.005000", "103739.005000", "103741.005000", "103743.005000", "103745.005000", "103747.005000", "103749.005000", "103751.005000", "103753.005000", "103755.005000", "103757.005000", "103759.005000", "103801.005000", "103803.005000", "103805.005000", "103807.005000", "103809.005000", "103811.005000", "103813.005000", "103815.005000", "103817.005000", "103819.005000", "103821.005000", "103823.005000", "103825.005000", "103827.005000", "103829.005000", "103831.005000", "103833.005000", "103835.005000", "103837.005000", "103839.005000", "103841.005000", "103843.005000", "103845.005000", "103847.005000", "103849.005000", "103851.005000", "103853.005000", "103855.005000", "103857.005000", "103859.005000", "103901.005000", "103903.005000", "103905.005000", "103907.005000", "103909.005000", "103911.005000", "103913.005000", "103915.005000", "103917.005000", "103919.005000", "103921.005000", "103923.005000", "103925.005000", "103927.005000", "103929.005000", "103931.005000", "103933.005000", "103935.005000", "103937.005000", "103939.005000", "103941.005000", "103943.005000", "103945.005000", "103947.005000", "103949.005000", "103951.005000", "103953.005000", "103955.005000", "103957.005000", "103959.005000", "104001.005000", "104003.005000", "104005.005000", "104007.005000", "104009.005000", "104011.005000", "104013.005000", "104015.005000", "104017.005000", "104019.005000", "104021.005000", "104023.005000", "104025.005000", "104027.005000", "104029.005000", "104031.005000", "104033.005000", "104035.005000", "104037.005000", "104039.005000", "104041.005000", "104043.005000", "104045.005000", "104047.005000", "104049.005000", "104051.005000", "104053.005000", "104055.005000", "104057.005000", "104059.005000", "104101.005000", "104103.005000", "104105.005000", "104107.005000", "104109.005000", "104111.005000", "104113.005000", "104115.005000", "104117.005000", "104119.005000", "104121.005000", "104123.005000", "104125.005000", "104127.005000", "104129.005000", "104131.005000", "104133.005000", "104135.005000", "104137.005000", "104139.005000", "104141.005000", "104143.005000", "104145.005000", "104147.005000", "104149.005000", "104151.005000", "104153.005000", "104155.005000", "104157.005000", "104159.005000", "104201.005000", "104203.005000", "104205.005000", "104207.005000", "104209.005000", "104211.005000", "104213.005000", "104215.005000", "104217.005000", "104219.005000", "104221.005000", "104223.005000", "104225.005000", "104227.005000", "104229.005000", "104231.005000", "104233.005000", "104235.005000", "104237.005000", "104239.005000", "104241.005000", "104243.005000", "104245.005000", "104247.005000", "104249.005000", "104251.005000", "104253.005000", "104255.005000", "104257.005000", "104259.005000", "104301.005000", "104303.005000", "104305.005000", "104307.005000", "104309.005000", "104311.005000", "104313.005000", "104315.005000", "104317.005000", "104319.005000", "104321.005000", "104323.005000", "104325.005000", "104327.005000", "104329.005000", "104331.005000", "104333.005000", "104335.005000", "104337.005000", "104339.005000", "104341.005000", "104343.005000", "104345.005000", "104347.005000", "104349.005000", "104351.005000", "104353.005000", "104355.005000", "104357.005000", "104359.005000", "104401.005000", "104403.005000", "104405.005000", "104407.005000", "104409.005000", "104411.005000", "104413.005000", "104415.005000", "104417.005000"],
      "ContentTime": ["103006.742000", "103006.746000", "103006.748000", "103006.751000", "103006.754000", "103006.756000", "103006.771000", "103006.774000", "103006.783000", "103006.786000", "103046.736000", "103046.739000", "103046.742000", "103046.745000", "103046.748000", "103046.750000", "103046.753000", "103046.756000", "103046.758000", "103046.761000", "103046.763000", "103046.766000", "103046.769000", "103046.771000", "103046.774000", "103046.777000", "103046.779000", "103046.782000", "103046.790000", "103046.793000", "103126.737000", "103126.741000", "103126.744000", "103126.747000", "103126.749000", "103126.752000", "103126.755000", "103126.757000", "103126.760000", "103126.762000", "103126.765000", "103126.768000", "103126.770000", "103126.773000", "103126.776000", "103126.778000", "103126.781000", "103126.784000", "103126.786000", "103126.789000", "103206.738000", "103206.740000", "103206.743000", "103206.746000", "103206.748000", "103206.751000", "103206.754000", "103206.756000", "103206.759000", "103206.762000", "103206.764000", "103206.767000", "103206.769000", "103206.772000", "103206.775000", "103206.777000", "103206.780000", "103206.783000", "103206.785000", "103206.788000", "103246.738000", "103246.741000", "103246.743000", "103246.746000", "103246.749000", "103246.751000", "103246.754000", "103246.767000", "103246.770000", "103246.773000", "103246.775000", "103246.778000", "103246.781000", "103246.783000", "103246.786000", "103246.789000", "103246.791000", "103246.794000", "103246.796000", "103246.799000", "103326.737000", "103326.739000", "103326.742000", "103326.745000", "103326.747000", "103326.750000", "103326.753000", "103326.755000", "103326.758000", "103326.761000", "103326.763000", "103326.766000", "103326.769000", "103326.772000", "103326.774000", "103326.777000", "103326.780000", "103326.782000", "103326.785000", "103326.788000", "103406.737000", "103406.740000", "103406.742000", "103406.745000", "103406.748000", "103406.750000", "103406.753000", "103406.755000", "103406.758000", "103406.761000", "103406.763000", "103406.766000", "103406.769000", "103406.771000", "103406.774000", "103406.777000", "103406.779000", "103406.782000", "103406.785000", "103406.787000", "103446.738000", "103446.741000", "103446.743000", "103446.746000", "103446.748000", "103446.751000", "103446.754000", "103446.756000", "103446.759000", "103446.762000", "103446.764000", "103446.767000", "103446.770000", "103446.772000", "103446.775000", "103446.778000", "103446.780000", "103446.783000", "103446.785000", "103446.788000", "103526.737000", "103526.739000", "103526.742000", "103526.745000", "103526.748000", "103526.750000", "103526.753000", "103526.755000", "103526.758000", "103526.761000", "103526.763000", "103526.766000", "103526.769000", "103526.771000", "103526.774000", "103526.777000", "103526.779000", "103526.782000", "103526.785000", "103526.787000", "103606.737000", "103606.740000", "103606.742000", "103606.745000", "103606.748000", "103606.750000", "103606.753000", "103606.755000", "103606.758000", "103606.761000", "103606.763000", "103606.766000", "103606.769000", "103606.771000", "103606.774000", "103606.776000", "103606.779000", "103606.782000", "103606.784000", "103606.787000", "103646.738000", "103646.740000", "103646.743000", "103646.746000", "103646.748000", "103646.751000", "103646.754000", "103646.756000", "103646.759000", "103646.762000", "103646.764000", "103646.767000", "103646.770000", "103646.772000", "103646.791000", "103646.794000", "103646.797000", "103646.799000", "103646.802000", "103646.805000", "103726.738000", "103726.740000", "103726.743000", "103726.746000", "103726.748000", "103726.751000", "103726.754000", "103726.756000", "103726.759000", "103726.762000", "103726.765000", "103726.767000", "103726.770000", "103726.773000", "103726.775000", "103726.778000", "103726.780000", "103726.783000", "103726.786000", "103726.788000", "103806.737000", "103806.740000", "103806.742000", "103806.745000", "103806.748000", "103806.750000", "103806.753000", "103806.756000", "103806.758000", "103806.761000", "103806.764000", "103806.766000", "103806.769000", "103806.772000", "103806.774000", "103806.777000", "103806.780000", "103806.782000", "103806.785000", "103806.788000", "103846.737000", "103846.740000", "103846.742000", "103846.745000", "103846.748000", "103846.760000", "103846.762000", "103846.765000", "103846.768000", "103846.770000", "103846.773000", "103846.776000", "103846.778000", "103846.781000", "103846.783000", "103846.786000", "103846.789000", "103846.791000", "103846.794000", "103846.797000", "103926.738000", "103926.741000", "103926.743000", "103926.746000", "103926.749000", "103926.751000", "103926.754000", "103926.757000", "103926.759000", "103926.762000", "103926.765000", "103926.768000", "103926.770000", "103926.773000", "103926.776000", "103926.778000", "103926.781000", "103926.784000", "103926.786000", "103926.789000", "104006.737000", "104006.740000", "104006.742000", "104006.745000", "104006.748000", "104006.750000", "104006.753000", "104006.756000", "104006.758000", "104006.761000", "104006.764000", "104006.766000", "104006.769000", "104006.772000", "104006.774000", "104006.777000", "104006.780000", "104006.782000", "104006.785000", "104006.788000", "104046.737000", "104046.740000", "104046.742000", "104046.745000", "104046.748000", "104046.750000", "104046.753000", "104046.756000", "104046.758000", "104046.761000", "104046.764000", "104046.766000", "104046.769000", "104046.772000", "104046.775000", "104046.777000", "104046.780000", "104046.782000", "104046.785000", "104046.788000", "104126.738000", "104126.741000", "104126.744000", "104126.746000", "104126.749000", "104126.752000", "104126.754000", "104126.757000", "104126.760000", "104126.763000", "104126.765000", "104126.768000", "104126.771000", "104126.774000", "104126.776000", "104126.779000", "104126.782000", "104126.784000", "104126.787000", "104126.790000", "104206.738000", "104206.741000", "104206.743000", "104206.746000", "104206.748000", "104206.751000", "104206.754000", "104206.757000", "104206.759000", "104206.762000", "104206.765000", "104206.767000", "104206.770000", "104206.773000", "104206.775000", "104206.778000", "104206.780000", "104206.783000", "104206.786000", "104206.788000", "104246.737000", "104246.739000", "104246.742000", "104246.745000", "104246.747000", "104246.750000", "104246.753000", "104246.755000", "104246.758000", "104246.761000", "104246.763000", "104246.766000", "104246.769000", "104246.771000", "104246.774000", "104246.776000", "104246.779000", "104246.782000", "104246.784000", "104246.787000", "104326.737000", "104326.740000", "104326.742000", "104326.745000", "104326.748000", "104326.750000", "104326.753000", "104326.756000", "104326.759000", "104326.761000", "104326.764000", "104326.767000", "104326.769000", "104326.772000", "104326.775000", "104326.777000", "104326.780000", "104326.783000", "104326.785000", "104326.788000", "104406.738000", "104406.741000", "104406.743000", "104406.746000", "104406.749000", "104406.751000", "104406.754000", "104406.757000", "104406.759000", "104406.762000", "104406.765000", "104406.767000", "104406.770000", "104406.773000", "104406.775000", "104406.789000", "104406.792000", "104406.794000", "104406.797000", "104406.800000", "104418.856000", "104418.859000", "104418.862000", "104418.864000", "104418.867000", "104418.870000", "104418.872000"],
      "DataSetTrailingPadding": [
        "\u0000\u0000\u0000\u0000\u0000\u0000\u0000\u0000\u0000\u0000\u0000\u0000\u0000\u0000\u0000\u0000\u0000\u0000\u0000\u0000\u0000\u0000\u0000\u0000\u0000\u0000\u0000\u0000\u0000\u0000\u0000\u0000\u0000\u0000\u0000\u0000\u0000\u0000\u0000\u0000\u0000\u0000\u0000\u0000\u0000\u0000\u0000\u0000\u0000\u0000\u0000\u0000\u0000\u0000\u0000\u0000\u0000\u0000\u0000\u0000\u0000\u0000\u0000\u0000\u0000\u0000\u0000\u0000\u0000\u0000\u0000\u0000\u0000\u0000\u0000\u0000\u0000\u0000\u0000\u0000\u0000\u0000\u0000\u0000\u0000\u0000\u0000\u0000\u0000\u0000\u0000\u0000\u0000\u0000\u0000\u0000\u0000\u0000\u0000\u0000\u0000\u0000\u0000\u0000\u0000\u0000\u0000\u0000\u0000\u0000\u0000\u0000\u0000\u0000\u0000\u0000\u0000\u0000\u0000\u0000\u0000\u0000\u0000\u0000\u0000\u0000\u0000\u0000\u0000\u0000\u0000\u0000\u0000\u0000\u0000\u0000\u0000\u0000\u0000\u0000\u0000\u0000\u0000\u0000\u0000\u0000\u0000\u0000\u0000\u0000\u0000\u0000\u0000\u0000\u0000\u0000\u0000\u0000\u0000\u0000\u0000\u0000\u0000\u0000\u0000\u0000\u0000\u0000\u0000\u0000\u0000\u0000\u0000\u0000\u0000\u0000\u0000\u0000\u0000\u0000\u0000\u0000\u0000\u0000\u0000\u0000\u0000\u0000\u0000\u0000\u0000\u0000\u0000\u0000\u0000\u0000\u0000\u0000\u0000\u0000\u0000\u0000\u0000\u0000\u0000\u0000\u0000\u0000\u0000\u0000\u0000\u0000\u0000\u0000\u0000\u0000\u0000\u0000\u0000\u0000\u0000\u0000\u0000\u0000\u0000\u0000\u0000\u0000\u0000\u0000\u0000\u0000\u0000\u0000\u0000\u0000\u0000\u0000\u0000\u0000\u0000\u0000\u0000\u0000\u0000\u0000\u0000\u0000\u0000\u0000\u0000\u0000\u0000\u0000\u0000\u0000\u0000\u0000\u0000\u0000\u0000\u0000\u0000\u0000\u0000\u0000\u0000\u0000\u0000\u0000\u0000\u0000\u0000\u0000",
        "\u0000\u0000\u0000\u0000\u0000\u0000\u0000\u0000\u0000\u0000\u0000\u0000\u0000\u0000\u0000\u0000\u0000\u0000\u0000\u0000\u0000\u0000\u0000\u0000\u0000\u0000\u0000\u0000\u0000\u0000\u0000\u0000\u0000\u0000\u0000\u0000\u0000\u0000\u0000\u0000\u0000\u0000\u0000\u0000\u0000\u0000\u0000\u0000\u0000\u0000\u0000\u0000\u0000\u0000\u0000\u0000\u0000\u0000\u0000\u0000\u0000\u0000\u0000\u0000\u0000\u0000\u0000\u0000\u0000\u0000\u0000\u0000\u0000\u0000\u0000\u0000\u0000\u0000\u0000\u0000\u0000\u0000\u0000\u0000\u0000\u0000\u0000\u0000\u0000\u0000\u0000\u0000\u0000\u0000\u0000\u0000\u0000\u0000\u0000\u0000\u0000\u0000\u0000\u0000\u0000\u0000\u0000\u0000\u0000\u0000\u0000\u0000\u0000\u0000\u0000\u0000\u0000\u0000\u0000\u0000\u0000\u0000\u0000\u0000\u0000\u0000\u0000\u0000\u0000\u0000\u0000\u0000\u0000\u0000\u0000\u0000\u0000\u0000\u0000\u0000\u0000\u0000\u0000\u0000\u0000\u0000\u0000\u0000\u0000\u0000\u0000\u0000\u0000\u0000\u0000\u0000\u0000\u0000\u0000\u0000\u0000\u0000\u0000\u0000\u0000\u0000\u0000\u0000\u0000\u0000\u0000\u0000\u0000\u0000\u0000\u0000\u0000\u0000\u0000\u0000\u0000\u0000\u0000\u0000\u0000\u0000\u0000\u0000\u0000\u0000\u0000\u0000\u0000\u0000\u0000\u0000\u0000\u0000\u0000\u0000\u0000\u0000\u0000\u0000\u0000\u0000\u0000\u0000\u0000\u0000\u0000\u0000\u0000\u0000\u0000\u0000\u0000\u0000\u0000\u0000\u0000\u0000\u0000\u0000\u0000\u0000\u0000\u0000\u0000\u0000\u0000\u0000\u0000\u0000\u0000\u0000\u0000\u0000\u0000\u0000\u0000\u0000\u0000\u0000\u0000\u0000\u0000\u0000\u0000\u0000\u0000\u0000\u0000\u0000\u0000\u0000\u0000\u0000\u0000\u0000\u0000\u0000\u0000\u0000\u0000\u0000\u0000\u0000\u0000\u0000\u0000\u0000\u0000\u0000\u0000\u0000",
        "\u0000\u0000\u0000\u0000\u0000\u0000\u0000\u0000\u0000\u0000\u0000\u0000\u0000\u0000\u0000\u0000\u0000\u0000\u0000\u0000\u0000\u0000\u0000\u0000\u0000\u0000\u0000\u0000\u0000\u0000\u0000\u0000\u0000\u0000\u0000\u0000\u0000\u0000\u0000\u0000\u0000\u0000\u0000\u0000\u0000\u0000\u0000\u0000\u0000\u0000\u0000\u0000\u0000\u0000\u0000\u0000\u0000\u0000\u0000\u0000\u0000\u0000\u0000\u0000\u0000\u0000\u0000\u0000\u0000\u0000\u0000\u0000\u0000\u0000\u0000\u0000\u0000\u0000\u0000\u0000\u0000\u0000\u0000\u0000\u0000\u0000\u0000\u0000\u0000\u0000\u0000\u0000\u0000\u0000\u0000\u0000\u0000\u0000\u0000\u0000\u0000\u0000\u0000\u0000\u0000\u0000\u0000\u0000\u0000\u0000\u0000\u0000\u0000\u0000\u0000\u0000\u0000\u0000\u0000\u0000\u0000\u0000\u0000\u0000\u0000\u0000\u0000\u0000\u0000\u0000\u0000\u0000\u0000\u0000\u0000\u0000\u0000\u0000\u0000\u0000\u0000\u0000\u0000\u0000\u0000\u0000\u0000\u0000\u0000\u0000\u0000\u0000\u0000\u0000\u0000\u0000\u0000\u0000\u0000\u0000\u0000\u0000\u0000\u0000\u0000\u0000\u0000\u0000\u0000\u0000\u0000\u0000\u0000\u0000\u0000\u0000\u0000\u0000\u0000\u0000\u0000\u0000\u0000\u0000\u0000\u0000\u0000\u0000\u0000\u0000\u0000\u0000\u0000\u0000\u0000\u0000\u0000\u0000\u0000\u0000\u0000\u0000\u0000\u0000\u0000\u0000\u0000\u0000\u0000\u0000\u0000\u0000\u0000\u0000\u0000\u0000\u0000\u0000\u0000\u0000\u0000\u0000\u0000\u0000\u0000\u0000\u0000\u0000\u0000\u0000\u0000\u0000\u0000\u0000\u0000\u0000\u0000\u0000\u0000\u0000\u0000\u0000\u0000\u0000\u0000\u0000\u0000\u0000\u0000\u0000\u0000\u0000\u0000\u0000\u0000\u0000\u0000\u0000\u0000\u0000\u0000\u0000\u0000\u0000\u0000\u0000\u0000\u0000\u0000\u0000\u0000\u0000\u0000\u0000\u0000\u0000",
        "\u0000\u0000\u0000\u0000\u0000\u0000\u0000\u0000\u0000\u0000\u0000\u0000\u0000\u0000\u0000\u0000\u0000\u0000\u0000\u0000\u0000\u0000\u0000\u0000\u0000\u0000\u0000\u0000\u0000\u0000\u0000\u0000\u0000\u0000\u0000\u0000\u0000\u0000\u0000\u0000\u0000\u0000\u0000\u0000\u0000\u0000\u0000\u0000\u0000\u0000\u0000\u0000\u0000\u0000\u0000\u0000\u0000\u0000\u0000\u0000\u0000\u0000\u0000\u0000\u0000\u0000\u0000\u0000\u0000\u0000\u0000\u0000\u0000\u0000\u0000\u0000\u0000\u0000\u0000\u0000\u0000\u0000\u0000\u0000\u0000\u0000\u0000\u0000\u0000\u0000\u0000\u0000\u0000\u0000\u0000\u0000\u0000\u0000\u0000\u0000\u0000\u0000\u0000\u0000\u0000\u0000\u0000\u0000\u0000\u0000\u0000\u0000\u0000\u0000\u0000\u0000\u0000\u0000\u0000\u0000\u0000\u0000\u0000\u0000\u0000\u0000\u0000\u0000\u0000\u0000\u0000\u0000\u0000\u0000\u0000\u0000\u0000\u0000\u0000\u0000\u0000\u0000\u0000\u0000\u0000\u0000\u0000\u0000\u0000\u0000\u0000\u0000\u0000\u0000\u0000\u0000\u0000\u0000\u0000\u0000\u0000\u0000\u0000\u0000\u0000\u0000\u0000\u0000\u0000\u0000\u0000\u0000\u0000\u0000\u0000\u0000\u0000\u0000\u0000\u0000\u0000\u0000\u0000\u0000\u0000\u0000\u0000\u0000\u0000\u0000\u0000\u0000\u0000\u0000\u0000\u0000\u0000\u0000\u0000\u0000\u0000\u0000\u0000\u0000\u0000\u0000\u0000\u0000\u0000\u0000\u0000\u0000\u0000\u0000\u0000\u0000\u0000\u0000\u0000\u0000\u0000\u0000\u0000\u0000\u0000\u0000\u0000\u0000\u0000\u0000\u0000\u0000\u0000\u0000\u0000\u0000\u0000\u0000\u0000\u0000\u0000\u0000\u0000\u0000\u0000\u0000\u0000\u0000\u0000\u0000\u0000\u0000\u0000\u0000\u0000\u0000\u0000\u0000\u0000\u0000\u0000\u0000\u0000\u0000\u0000\u0000\u0000\u0000\u0000\u0000\u0000\u0000\u0000\u0000\u0000\u0000",
