{
  "AcquisitionMatrixPE": 70,
  "AcquisitionNumber": 1,
  "AcquisitionTime": "12:16:26.637500",
  "BandwidthPerPixelPhaseEncode": 51.948,
  "BaseResolution": 70,
  "BodyPartExamined": "HEAD",
  "CoilCombinationMethod": "Sum of Squares",
  "ConsistencyInfo": "N4_VE11C_LATEST_20160120",
  "ConversionSoftware": "dcm2niix",
  "ConversionSoftwareVersion": "v1.0.20220720",
  "DerivedVendorReportedEchoSpacing": 0.000550001,
  "DeviceSerialNumber": "66061",
  "DwellTime": 3.3e-06,
  "EchoTime": 0.022,
  "EchoTrainLength": 35,
  "EffectiveEchoSpacing": 0.000275,
  "FlipAngle": 90,
  "HeudiconvVersion": "1.1.1",
  "ImageOrientationPatientDICOM": [0.998927, 0.011145, 0.0449578, -0.00122035, 0.976616, -0.214987],
  "ImageOrientationText": "Tra>Cor(-12.4)>Sag(2.7)",
  "ImageType": [
    "ORIGINAL",
    "PRIMARY",
    "M",
    "ND",
    "NORM",
    "MOSAIC"
],
  "ImagingFrequency": 123.254,
  "InPlanePhaseEncodingDirectionDICOM": "COL",
  "InstitutionAddress": "Street StreetNo,City/1c4204/,District,KR,ZIP",
  "InstitutionName": "SKKU",
  "InstitutionalDepartmentName": "Department",
  "MRAcquisitionType": "2D",
  "MagneticFieldStrength": 3,
  "Manufacturer": "Siemens",
  "ManufacturersModelName": "Prisma",
  "MatrixCoilMode": "GRAPPA",
  "Modality": "MR",
  "NonlinearGradientCorrection": false,
  "ParallelReductionFactorInPlane": 2,
  "PartialFourier": 1,
  "PatientPosition": "HFS",
  "PercentPhaseFOV": 100,
  "PercentSampling": 100,
  "PhaseEncodingDirection": "j-",
  "PhaseEncodingSteps": 70,
  "PhaseResolution": 1,
  "PixelBandwidth": 2165,
  "ProcedureStepDescription": "Head^PI:Others",
  "ProtocolName": "BOLD_ep2d_3x3x3_feature3",
  "PulseSequenceDetails": "%SiemensSeq%\\ep2d_pace",
  "ReceiveCoilActiveElements": "HC1-7",
  "ReceiveCoilName": "HeadNeck_64",
  "ReconMatrixPE": 70,
  "RefLinesPE": 24,
  "RepetitionTime": 2,
  "SAR": 0.136822,
  "ScanOptions": "FS",
  "ScanningSequence": "EP",
  "SequenceName": "*epfid2d1_70",
  "SequenceVariant": "SK",
  "SeriesDescription": "BOLD_ep2d_3x3x3_feature3",
  "SeriesNumber": 10,
  "ShimSetting": [5042, 3718, 4479, 380, -136, 38, -29, 41],
  "SliceThickness": 3,
  "SliceTiming": [0.99, 0, 1.0375, 0.0475, 1.085, 0.095, 1.1325, 0.1425, 1.1775, 0.1875, 1.225, 0.235, 1.2725, 0.2825, 1.32, 0.33, 1.3675, 0.3775, 1.415, 0.425, 1.4625, 0.4725, 1.5075, 0.5175, 1.555, 0.565, 1.6025, 0.6125, 1.65, 0.66, 1.6975, 0.7075, 1.745, 0.755, 1.7925, 0.8025, 1.8375, 0.8475, 1.885, 0.895, 1.9325, 0.9425],
  "SoftwareVersions": "syngo MR E11",
  "SpacingBetweenSlices": 3,
  "StationName": "AWP66061",
  "TaskName": "feature",
  "TotalReadoutTime": 0.018975,
  "TxRefAmp": 251.894,
  "dcmmeta_affine": [
    [-2.9967801570892334, -0.0036610469687730074, 0.13890774548053741, 102.6637954711914],
    [-0.03343496099114418, 2.9298486709594727, -0.6441031694412231, -92.4637680053711],
    [0.13487352430820465, 0.6449599862098694, 2.9267449378967285, -62.481388092041016],
    [0.0, 0.0, 0.0, 1.0]
],
  "dcmmeta_reorient_transform": [
    [0.0, -1.0, 0.0, 69.0],
    [1.0, 0.0, 0.0, 0.0],
    [0.0, 0.0, -1.0, 41.0],
    [0.0, 0.0, 0.0, 1.0]
],
  "dcmmeta_shape": [70, 70, 42, 221],
  "dcmmeta_slice_dim": 2,
  "dcmmeta_version": 0.6,
  "global": {
    "const": {
      "AcquisitionMatrix": [70, 0, 0, 70],
      "AngioFlag": "N",
      "BitsAllocated": 16,
      "BitsStored": 12,
      "BodyPartExamined": "HEAD",
      "Columns": 490,
      "EchoNumbers": 1,
      "EchoTime": 22.0,
      "EchoTrainLength": 35,
      "FlipAngle": 90.0,
      "HighBit": 11,
      "ImageOrientationPatient": [0.99892671481705, 0.01114498757628, 0.04495784332841, -0.0012203490178, 0.97661622353073, -0.2149866569926],
      "ImagePositionPatient": [-736.66140977371, -705.57712390694, 209.13554571895],
      "ImageType": [
        "ORIGINAL",
        "PRIMARY",
        "M",
        "ND",
        "NORM",
        "MOSAIC"
],
      "ImagedNucleus": "1H",
      "ImagingFrequency": 123.25443,
      "InPlanePhaseEncodingDirection": "COL",
      "MRAcquisitionType": "2D",
      "MagneticFieldStrength": 3.0,
      "Manufacturer": "SIEMENS",
      "ManufacturerModelName": "Prisma",
      "Modality": "MR",
      "NumberOfAverages": 1.0,
      "NumberOfPhaseEncodingSteps": 70,
      "PercentPhaseFieldOfView": 100.0,
      "PercentSampling": 100.0,
      "PerformedProcedureStepStartTime": "112155.301000",
      "PhotometricInterpretation": "MONOCHROME2",
      "PixelBandwidth": 2165.0,
      "PixelRepresentation": 0,
      "PixelSpacing": [3.0, 3.0],
      "ProtocolName": "BOLD_ep2d_3x3x3_feature3",
      "RepetitionTime": 2000.0,
      "Rows": 490,
      "SAR": 0.13682201022892,
      "SamplesPerPixel": 1,
      "ScanOptions": "FS",
      "ScanningSequence": "EP",
      "SequenceName": "*epfid2d1_70",
      "SequenceVariant": "SK",
      "SeriesDescription": "BOLD_ep2d_3x3x3_feature3",
      "SeriesNumber": 10,
      "SeriesTime": "121706.722000",
      "SliceLocation": 86.649973994669,
      "SliceThickness": 3.0,
      "SmallestImagePixelValue": 0,
      "SoftwareVersions": "syngo MR E11",
      "SpacingBetweenSlices": 3.0000000663734,
      "SpecificCharacterSet": "ISO_IR 100",
      "StudyID": "1",
      "StudyTime": "112155.245000",
      "TransmitCoilName": "Body",
      "VariableFlipAngleFlag": "N",
      "WindowCenterWidthExplanation": "Algo1",
      "dBdt": 0.0},
    "slices": {}
  },
  "time": {
    "samples": {
      "AcquisitionNumber": [1, 2, 3, 4, 5, 6, 7, 8, 9, 10, 11, 12, 13, 14, 15, 16, 17, 18, 19, 20, 21, 22, 23, 24, 25, 26, 27, 28, 29, 30, 31, 32, 33, 34, 35, 36, 37, 38, 39, 40, 41, 42, 43, 44, 45, 46, 47, 48, 49, 50, 51, 52, 53, 54, 55, 56, 57, 58, 59, 60, 61, 62, 63, 64, 65, 66, 67, 68, 69, 70, 71, 72, 73, 74, 75, 76, 77, 78, 79, 80, 81, 82, 83, 84, 85, 86, 87, 88, 89, 90, 91, 92, 93, 94, 95, 96, 97, 98, 99, 100, 101, 102, 103, 104, 105, 106, 107, 108, 109, 110, 111, 112, 113, 114, 115, 116, 117, 118, 119, 120, 121, 122, 123, 124, 125, 126, 127, 128, 129, 130, 131, 132, 133, 134, 135, 136, 137, 138, 139, 140, 141, 142, 143, 144, 145, 146, 147, 148, 149, 150, 151, 152, 153, 154, 155, 156, 157, 158, 159, 160, 161, 162, 163, 164, 165, 166, 167, 168, 169, 170, 171, 172, 173, 174, 175, 176, 177, 178, 179, 180, 181, 182, 183, 184, 185, 186, 187, 188, 189, 190, 191, 192, 193, 194, 195, 196, 197, 198, 199, 200, 201, 202, 203, 204, 205, 206, 207, 208, 209, 210, 211, 212, 213, 214, 215, 216, 217, 218, 219, 220, 221],
      "AcquisitionTime": ["121626.637500", "121628.637500", "121630.637500", "121632.637500", "121634.637500", "121636.637500", "121638.637500", "121640.637500", "121642.637500", "121644.637500", "121646.637500", "121648.637500", "121650.637500", "121652.637500", "121654.637500", "121656.637500", "121658.637500", "121700.637500", "121702.637500", "121704.637500", "121706.637500", "121708.637500", "121710.637500", "121712.637500", "121714.637500", "121716.637500", "121718.637500", "121720.637500", "121722.637500", "121724.637500", "121726.637500", "121728.637500", "121730.637500", "121732.637500", "121734.637500", "121736.637500", "121738.637500", "121740.637500", "121742.637500", "121744.637500", "121746.637500", "121748.637500", "121750.637500", "121752.637500", "121754.637500", "121756.637500", "121758.637500", "121800.637500", "121802.637500", "121804.637500", "121806.637500", "121808.637500", "121810.637500", "121812.637500", "121814.637500", "121816.637500", "121818.637500", "121820.637500", "121822.637500", "121824.637500", "121826.637500", "121828.637500", "121830.637500", "121832.637500", "121834.637500", "121836.637500", "121838.637500", "121840.637500", "121842.637500", "121844.637500", "121846.637500", "121848.637500", "121850.637500", "121852.637500", "121854.637500", "121856.637500", "121858.637500", "121900.637500", "121902.637500", "121904.637500", "121906.637500", "121908.637500", "121910.637500", "121912.637500", "121914.637500", "121916.637500", "121918.637500", "121920.637500", "121922.637500", "121924.637500", "121926.637500", "121928.637500", "121930.637500", "121932.637500", "121934.637500", "121936.637500", "121938.637500", "121940.637500", "121942.637500", "121944.637500", "121946.637500", "121948.637500", "121950.637500", "121952.637500", "121954.637500", "121956.637500", "121958.637500", "122000.637500", "122002.637500", "122004.637500", "122006.637500", "122008.637500", "122010.637500", "122012.637500", "122014.637500", "122016.637500", "122018.637500", "122020.637500", "122022.637500", "122024.637500", "122026.637500", "122028.637500", "122030.637500", "122032.637500", "122034.637500", "122036.637500", "122038.637500", "122040.637500", "122042.637500", "122044.637500", "122046.637500", "122048.637500", "122050.637500", "122052.637500", "122054.637500", "122056.637500", "122058.637500", "122100.637500", "122102.637500", "122104.637500", "122106.637500", "122108.637500", "122110.637500", "122112.637500", "122114.637500", "122116.637500", "122118.637500", "122120.637500", "122122.637500", "122124.637500", "122126.637500", "122128.637500", "122130.637500", "122132.637500", "122134.637500", "122136.637500", "122138.637500", "122140.637500", "122142.637500", "122144.637500", "122146.637500", "122148.637500", "122150.637500", "122152.637500", "122154.637500", "122156.637500", "122158.637500", "122200.637500", "122202.637500", "122204.637500", "122206.637500", "122208.637500", "122210.637500", "122212.637500", "122214.637500", "122216.637500", "122218.637500", "122220.637500", "122222.637500", "122224.637500", "122226.637500", "122228.637500", "122230.637500", "122232.637500", "122234.637500", "122236.637500", "122238.637500", "122240.637500", "122242.637500", "122244.637500", "122246.637500", "122248.637500", "122250.637500", "122252.637500", "122254.637500", "122256.637500", "122258.637500", "122300.637500", "122302.637500", "122304.637500", "122306.637500", "122308.637500", "122310.637500", "122312.637500", "122314.637500", "122316.637500", "122318.637500", "122320.637500", "122322.637500", "122324.637500", "122326.637500", "122328.637500", "122330.637500", "122332.637500", "122334.637500", "122336.637500", "122338.637500", "122340.637500", "122342.637500", "122344.637500", "122346.637500"],
      "ContentTime": ["121706.725000", "121706.729000", "121706.731000", "121706.734000", "121706.744000", "121706.747000", "121706.750000", "121706.753000", "121706.755000", "121706.758000", "121706.761000", "121706.763000", "121706.766000", "121706.769000", "121706.771000", "121706.774000", "121706.781000", "121706.788000", "121706.793000", "121706.796000", "121746.721000", "121746.724000", "121746.726000", "121746.729000", "121746.732000", "121746.734000", "121746.737000", "121746.740000", "121746.742000", "121746.745000", "121746.748000", "121746.750000", "121746.753000", "121746.756000", "121746.759000", "121746.761000", "121746.764000", "121746.767000", "121746.769000", "121746.772000", "121826.720000", "121826.723000", "121826.725000", "121826.728000", "121826.731000", "121826.733000", "121826.736000", "121826.738000", "121826.741000", "121826.744000", "121826.747000", "121826.749000", "121826.752000", "121826.755000", "121826.757000", "121826.760000", "121826.762000", "121826.765000", "121826.771000", "121826.774000", "121846.720000", "121846.723000", "121846.725000", "121846.728000", "121846.730000", "121846.733000", "121846.736000", "121846.738000", "121846.741000", "121846.744000", "121926.720000", "121926.723000", "121926.726000", "121926.729000", "121926.731000", "121926.734000", "121926.737000", "121926.739000", "121926.742000", "121926.745000", "121926.747000", "121926.750000", "121926.753000", "121926.755000", "121926.758000", "121926.761000", "121926.763000", "121926.766000", "121926.776000", "121926.778000", "122006.720000", "122006.723000", "122006.726000", "122006.729000", "122006.731000", "122006.734000", "122006.737000", "122006.740000", "122006.742000", "122006.745000", "122006.747000", "122006.750000", "122006.760000", "122006.763000", "122006.766000", "122006.768000", "122006.771000", "122006.774000", "122006.776000", "122006.779000", "122046.720000", "122046.722000", "122046.725000", "122046.728000", "122046.730000", "122046.733000", "122046.736000", "122046.739000", "122046.741000", "122046.744000", "122046.746000", "122046.749000", "122046.752000", "122046.754000", "122046.757000", "122046.760000", "122046.762000", "122046.765000", "122046.768000", "122046.771000", "122126.720000", "122126.723000", "122126.726000", "122126.729000", "122126.732000", "122126.734000", "122126.737000", "122126.740000", "122126.742000", "122126.745000", "122126.748000", "122126.750000", "122126.753000", "122126.756000", "122126.758000", "122126.761000", "122126.764000", "122126.766000", "122126.769000", "122126.772000", "122206.720000", "122206.723000", "122206.726000", "122206.729000", "122206.731000", "122206.734000", "122206.737000", "122206.740000", "122206.742000", "122206.745000", "122206.747000", "122206.750000", "122206.753000", "122206.755000", "122206.758000", "122206.761000", "122206.763000", "122206.766000", "122206.769000", "122206.771000", "122246.720000", "122246.722000", "122246.725000", "122246.728000", "122246.731000", "122246.733000", "122246.736000", "122246.739000", "122246.741000", "122246.744000", "122246.746000", "122246.749000", "122246.752000", "122246.754000", "122246.757000", "122246.760000", "122246.763000", "122246.765000", "122246.768000", "122246.771000", "122326.719000", "122326.722000", "122326.725000", "122326.728000", "122326.731000", "122326.733000", "122326.736000", "122326.739000", "122326.741000", "122326.744000", "122326.746000", "122326.749000", "122326.752000", "122326.754000", "122326.757000", "122326.760000", "122326.763000", "122326.765000", "122326.768000", "122326.771000", "122348.529000", "122348.532000", "122348.534000", "122348.537000", "122348.539000", "122348.542000", "122348.545000", "122348.548000", "122348.550000", "122348.553000", "122348.556000"],
      "InstanceCreationTime": ["121706.725000", "121706.729000", "121706.731000", "121706.734000", "121706.744000", "121706.747000", "121706.750000", "121706.753000", "121706.755000", "121706.758000", "121706.761000", "121706.763000", "121706.766000", "121706.769000", "121706.771000", "121706.774000", "121706.781000", "121706.788000", "121706.793000", "121706.796000", "121746.721000", "121746.724000", "121746.726000", "121746.729000", "121746.732000", "121746.734000", "121746.737000", "121746.740000", "121746.742000", "121746.745000", "121746.748000", "121746.750000", "121746.753000", "121746.756000", "121746.759000", "121746.761000", "121746.764000", "121746.767000", "121746.769000", "121746.772000", "121826.720000", "121826.723000", "121826.725000", "121826.728000", "121826.731000", "121826.733000", "121826.736000", "121826.738000", "121826.741000", "121826.744000", "121826.747000", "121826.749000", "121826.752000", "121826.755000", "121826.757000", "121826.760000", "121826.762000", "121826.765000", "121826.771000", "121826.774000", "121846.720000", "121846.723000", "121846.725000", "121846.728000", "121846.730000", "121846.733000", "121846.736000", "121846.738000", "121846.741000", "121846.744000", "121926.720000", "121926.723000", "121926.726000", "121926.729000", "121926.731000", "121926.734000", "121926.737000", "121926.739000", "121926.742000", "121926.745000", "121926.747000", "121926.750000", "121926.753000", "121926.755000", "121926.758000", "121926.761000", "121926.763000", "121926.766000", "121926.776000", "121926.778000", "122006.720000", "122006.723000", "122006.726000", "122006.729000", "122006.731000", "122006.734000", "122006.737000", "122006.740000", "122006.742000", "122006.745000", "122006.747000", "122006.750000", "122006.760000", "122006.763000", "122006.766000", "122006.768000", "122006.771000", "122006.774000", "122006.776000", "122006.779000", "122046.720000", "122046.722000", "122046.725000", "122046.728000", "122046.730000", "122046.733000", "122046.736000", "122046.739000", "122046.741000", "122046.744000", "122046.746000", "122046.749000", "122046.752000", "122046.754000", "122046.757000", "122046.760000", "122046.762000", "122046.765000", "122046.768000", "122046.771000", "122126.720000", "122126.723000", "122126.726000", "122126.729000", "122126.732000", "122126.734000", "122126.737000", "122126.740000", "122126.742000", "122126.745000", "122126.748000", "122126.750000", "122126.753000", "122126.756000", "122126.758000", "122126.761000", "122126.764000", "122126.766000", "122126.769000", "122126.772000", "122206.720000", "122206.723000", "122206.726000", "122206.729000", "122206.731000", "122206.734000", "122206.737000", "122206.740000", "122206.742000", "122206.745000", "122206.747000", "122206.750000", "122206.753000", "122206.755000", "122206.758000", "122206.761000", "122206.763000", "122206.766000", "122206.769000", "122206.771000", "122246.720000", "122246.722000", "122246.725000", "122246.728000", "122246.731000", "122246.733000", "122246.736000", "122246.739000", "122246.741000", "122246.744000", "122246.746000", "122246.749000", "122246.752000", "122246.754000", "122246.757000", "122246.760000", "122246.763000", "122246.765000", "122246.768000", "122246.771000", "122326.719000", "122326.722000", "122326.725000", "122326.728000", "122326.731000", "122326.733000", "122326.736000", "122326.739000", "122326.741000", "122326.744000", "122326.746000", "122326.749000", "122326.752000", "122326.754000", "122326.757000", "122326.760000", "122326.763000", "122326.765000", "122326.768000", "122326.771000", "122348.529000", "122348.532000", "122348.534000", "122348.537000", "122348.539000", "122348.542000", "122348.545000", "122348.548000", "122348.550000", "122348.553000", "122348.556000"],
      "InstanceNumber": [1, 2, 3, 4, 5, 6, 7, 8, 9, 10, 11, 12, 13, 14, 15, 16, 17, 18, 19, 20, 21, 22, 23, 24, 25, 26, 27, 28, 29, 30, 31, 32, 33, 34, 35, 36, 37, 38, 39, 40, 41, 42, 43, 44, 45, 46, 47, 48, 49, 50, 51, 52, 53, 54, 55, 56, 57, 58, 59, 60, 61, 62, 63, 64, 65, 66, 67, 68, 69, 70, 71, 72, 73, 74, 75, 76, 77, 78, 79, 80, 81, 82, 83, 84, 85, 86, 87, 88, 89, 90, 91, 92, 93, 94, 95, 96, 97, 98, 99, 100, 101, 102, 103, 104, 105, 106, 107, 108, 109, 110, 111, 112, 113, 114, 115, 116, 117, 118, 119, 120, 121, 122, 123, 124, 125, 126, 127, 128, 129, 130, 131, 132, 133, 134, 135, 136, 137, 138, 139, 140, 141, 142, 143, 144, 145, 146, 147, 148, 149, 150, 151, 152, 153, 154, 155, 156, 157, 158, 159, 160, 161, 162, 163, 164, 165, 166, 167, 168, 169, 170, 171, 172, 173, 174, 175, 176, 177, 178, 179, 180, 181, 182, 183, 184, 185, 186, 187, 188, 189, 190, 191, 192, 193, 194, 195, 196, 197, 198, 199, 200, 201, 202, 203, 204, 205, 206, 207, 208, 209, 210, 211, 212, 213, 214, 215, 216, 217, 218, 219, 220, 221],
      "LargestImagePixelValue": [2398, 2525, 2399, 2760, 2463, 2512, 2444, 2476, 2559, 2547, 2354, 2428, 2645, 2270, 2464, 2585, 2398, 2522, 2516, 2438, 2902, 2487, 2476, 2461, 2484, 2809, 2611, 2282, 2316, 2350, 2283, 2434, 2383, 2685, 2484, 2426, 2456, 2438, 2504, 2399, 2524, 2684, 2502, 2460, 2585, 2727, 2410, 2819, 2540, 2645, 2739, 2671, 2489, 2476, 2574, 2536, 2433, 2530, 2546, 2765, 2320, 2587, 2337, 2521, 2593, 2649, 2685, 2850, 2397, 2437, 2309, 2328, 2533, 2271, 2486, 2401, 2487, 2471, 2546, 2462, 3268, 2508, 2646, 2425, 2426, 2331, 2597, 2389, 2498, 2541, 2466, 2632, 2413, 2714, 2565, 2299, 2529, 2332, 2353, 2498, 2336, 2432, 2436, 2547, 2406, 2530, 2485, 2632, 2792, 2434, 2445, 2618, 2534, 2517, 2486, 2517, 2918, 2602, 2546, 2627, 2560, 3031, 3160, 2536, 2037, 2294, 2491, 2444, 2399, 2475, 2307, 2407, 2778, 2461, 2462, 2437, 2370, 2446, 2430, 2226, 2247, 2178, 2581, 2510, 2494, 2500, 2404, 2626, 2402, 2192, 2335, 2466, 2186, 2582, 2736, 2453, 2306, 2435, 2614, 2480, 2791, 2454, 2612, 2313, 2622, 2180, 2593, 2489, 2439, 2469, 2400, 2348, 2829, 2485, 2485, 2530, 2369, 2577, 2407, 2638, 2383, 2506, 2312, 2517, 2499, 2491, 2259, 2879, 2512, 2440, 2480, 2500, 2636, 2313, 2596, 2633, 2587, 2436, 2434, 2371, 2431, 2557, 2409, 2579, 2406, 2714, 2376, 2678, 2304, 2396, 2631, 2432, 2580, 2414, 2510, 2464, 2331, 2838, 2321, 2432, 2440],
      "WindowCenter": [856.0, 855.0, 855.0, 854.0, 853.0, 853.0, 854.0, 854.0, 855.0, 854.0, 855.0, 855.0, 855.0, 855.0, 855.0, 855.0, 855.0, 855.0, 855.0, 855.0, 854.0, 854.0, 854.0, 853.0, 854.0, 854.0, 854.0, 855.0, 855.0, 855.0, 855.0, 855.0, 855.0, 855.0, 855.0, 854.0, 855.0, 855.0, 855.0, 855.0, 855.0, 855.0, 855.0, 856.0, 855.0, 855.0, 856.0, 855.0, 855.0, 854.0, 853.0, 854.0, 854.0, 853.0, 854.0, 854.0, 853.0, 854.0, 854.0, 854.0, 855.0, 855.0, 855.0, 855.0, 854.0, 854.0, 854.0, 853.0, 854.0, 855.0, 855.0, 854.0, 856.0, 856.0, 857.0, 857.0, 856.0, 856.0, 855.0, 855.0, 853.0, 853.0, 853.0, 853.0, 853.0, 854.0, 854.0, 854.0, 854.0, 854.0, 853.0, 853.0, 854.0, 855.0, 855.0, 855.0, 855.0, 854.0, 854.0, 853.0, 853.0, 854.0, 854.0, 855.0, 855.0, 855.0, 855.0, 854.0, 855.0, 855.0, 855.0, 855.0, 855.0, 855.0, 854.0, 854.0, 853.0, 855.0, 856.0, 854.0, 854.0, 852.0, 852.0, 852.0, 855.0, 856.0, 856.0, 855.0, 854.0, 853.0, 851.0, 851.0, 852.0, 853.0, 852.0, 853.0, 854.0, 853.0, 854.0, 855.0, 856.0, 857.0, 856.0, 855.0, 855.0, 855.0, 855.0, 854.0, 853.0, 856.0, 857.0, 857.0, 856.0, 856.0, 855.0, 853.0, 852.0, 853.0, 853.0, 853.0, 852.0, 852.0, 853.0, 852.0, 851.0, 852.0, 853.0, 853.0, 854.0, 854.0, 854.0, 854.0, 854.0, 854.0, 853.0, 854.0, 855.0, 855.0, 855.0, 855.0, 855.0, 854.0, 855.0, 856.0, 856.0, 856.0, 856.0, 855.0, 854.0, 854.0, 854.0, 854.0, 854.0, 855.0, 854.0, 854.0, 854.0, 854.0, 854.0, 854.0, 853.0, 854.0, 854.0, 854.0, 854.0, 853.0, 853.0, 853.0, 855.0, 855.0, 855.0, 855.0, 855.0, 855.0, 854.0, 854.0, 855.0, 855.0, 855.0, 856.0, 856.0],
      "WindowWidth": [1916.0, 1915.0, 1912.0, 1912.0, 1908.0, 1909.0, 1911.0, 1913.0, 1916.0, 1914.0, 1913.0, 1915.0, 1917.0, 1914.0, 1916.0, 1918.0, 1915.0, 1916.0, 1915.0, 1915.0, 1916.0, 1913.0, 1913.0, 1910.0, 1912.0, 1916.0, 1915.0, 1915.0, 1914.0, 1916.0, 1915.0, 1917.0, 1915.0, 1916.0, 1916.0, 1913.0, 1915.0, 1915.0, 1915.0, 1914.0, 1916.0, 1920.0, 1919.0, 1918.0, 1918.0, 1920.0, 1919.0, 1920.0, 1917.0, 1912.0, 1912.0, 1916.0, 1911.0, 1911.0, 1914.0, 1914.0, 1910.0, 1911.0, 1912.0, 1917.0, 1914.0, 1916.0, 1915.0, 1913.0, 1913.0, 1915.0, 1912.0, 1913.0, 1911.0, 1915.0, 1913.0, 1910.0, 1920.0, 1916.0, 1920.0, 1919.0, 1918.0, 1919.0, 1916.0, 1914.0, 1916.0, 1909.0, 1908.0, 1907.0, 1908.0, 1911.0, 1915.0, 1911.0, 1910.0, 1911.0, 1907.0, 1910.0, 1910.0, 1918.0, 1917.0, 1912.0, 1915.0, 1911.0, 1911.0, 1909.0, 1907.0, 1912.0, 1912.0, 1915.0, 1914.0, 1915.0, 1914.0, 1914.0, 1916.0, 1913.0, 1913.0, 1918.0, 1917.0, 1915.0, 1911.0, 1913.0, 1914.0, 1916.0, 1920.0, 1914.0, 1911.0, 1910.0, 1909.0, 1908.0, 1911.0, 1917.0, 1920.0, 1914.0, 1912.0, 1910.0, 1901.0, 1902.0, 1908.0, 1908.0, 1907.0, 1906.0, 1908.0, 1909.0, 1911.0, 1914.0, 1916.0, 1916.0, 1918.0, 1914.0, 1914.0, 1912.0, 1913.0, 1912.0, 1911.0, 1916.0, 1920.0, 1921.0, 1916.0, 1918.0, 1916.0, 1907.0, 1904.0, 1907.0, 1909.0, 1907.0, 1909.0, 1906.0, 1909.0, 1904.0, 1904.0, 1902.0, 1910.0, 1909.0, 1912.0, 1912.0, 1912.0, 1911.0, 1914.0, 1912.0, 1910.0, 1912.0, 1913.0, 1916.0, 1915.0, 1916.0, 1913.0, 1912.0, 1912.0, 1919.0, 1919.0, 1919.0, 1914.0, 1918.0, 1912.0, 1914.0, 1914.0, 1913.0, 1916.0, 1914.0, 1913.0, 1916.0, 1913.0, 1913.0, 1913.0, 1911.0, 1907.0, 1913.0, 1912.0, 1912.0, 1910.0, 1910.0, 1909.0, 1912.0, 1911.0, 1915.0, 1915.0, 1913.0, 1914.0, 1912.0, 1911.0, 1909.0, 1913.0, 1920.0, 1913.0, 1916.0, 1915.0]
    },
    "slices": {}
  }
}