{
  "AcquisitionMatrixPE": 70,
  "AcquisitionNumber": 1,
  "AcquisitionTime": "11:59:20.962500",
  "BandwidthPerPixelPhaseEncode": 51.948,
  "BaseResolution": 70,
  "BodyPartExamined": "HEAD",
  "CoilCombinationMethod": "Sum of Squares",
  "ConsistencyInfo": "N4_VE11C_LATEST_20160120",
  "ConversionSoftware": "dcm2niix",
  "ConversionSoftwareVersion": "v1.0.20220720",
  "DerivedVendorReportedEchoSpacing": 0.000550001,
  "DeviceSerialNumber": "66061",
  "DwellTime": 3.3e-06,
  "EchoTime": 0.022,
  "EchoTrainLength": 35,
  "EffectiveEchoSpacing": 0.000275,
  "FlipAngle": 90,
  "HeudiconvVersion": "1.1.1",
  "ImageOrientationPatientDICOM": [0.998927, 0.011145, 0.0449578, -0.00122035, 0.976616, -0.214987],
  "ImageOrientationText": "Tra>Cor(-12.4)>Sag(2.7)",
  "ImageType": [
    "ORIGINAL",
    "PRIMARY",
    "M",
    "ND",
    "NORM",
    "MOSAIC"
],
  "ImagingFrequency": 123.254,
  "InPlanePhaseEncodingDirectionDICOM": "COL",
  "InstitutionAddress": "Street StreetNo,City/1c4204/,District,KR,ZIP",
  "InstitutionName": "SKKU",
  "InstitutionalDepartmentName": "Department",
  "MRAcquisitionType": "2D",
  "MagneticFieldStrength": 3,
  "Manufacturer": "Siemens",
  "ManufacturersModelName": "Prisma",
  "MatrixCoilMode": "GRAPPA",
  "Modality": "MR",
  "NonlinearGradientCorrection": false,
  "ParallelReductionFactorInPlane": 2,
  "PartialFourier": 1,
  "PatientPosition": "HFS",
  "PercentPhaseFOV": 100,
  "PercentSampling": 100,
  "PhaseEncodingDirection": "j-",
  "PhaseEncodingSteps": 70,
  "PhaseResolution": 1,
  "PixelBandwidth": 2165,
  "ProcedureStepDescription": "Head^PI:Others",
  "ProtocolName": "BOLD_ep2d_3x3x3_feature1",
  "PulseSequenceDetails": "%SiemensSeq%\\ep2d_pace",
  "ReceiveCoilActiveElements": "HC1-7",
  "ReceiveCoilName": "HeadNeck_64",
  "ReconMatrixPE": 70,
  "RefLinesPE": 24,
  "RepetitionTime": 2,
  "SAR": 0.136822,
  "ScanOptions": "FS",
  "ScanningSequence": "EP",
  "SequenceName": "*epfid2d1_70",
  "SequenceVariant": "SK",
  "SeriesDescription": "BOLD_ep2d_3x3x3_feature1",
  "SeriesNumber": 8,
  "ShimSetting": [5042, 3718, 4479, 380, -136, 38, -29, 41],
  "SliceThickness": 3,
  "SliceTiming": [0.99, 0, 1.0375, 0.0475, 1.0825, 0.095, 1.13, 0.14, 1.1775, 0.1875, 1.225, 0.235, 1.2725, 0.2825, 1.32, 0.33, 1.3675, 0.3775, 1.4125, 0.4225, 1.46, 0.47, 1.5075, 0.5175, 1.555, 0.565, 1.6025, 0.6125, 1.65, 0.66, 1.6975, 0.7075, 1.7425, 0.7525, 1.79, 0.8, 1.8375, 0.8475, 1.885, 0.895, 1.9325, 0.9425],
  "SoftwareVersions": "syngo MR E11",
  "SpacingBetweenSlices": 3,
  "StationName": "AWP66061",
  "TaskName": "feature",
  "TotalReadoutTime": 0.018975,
  "TxRefAmp": 251.894,
  "dcmmeta_affine": [
    [-2.9967801570892334, -0.0036610469687730074, 0.13890774548053741, 102.6637954711914],
    [-0.03343496099114418, 2.9298486709594727, -0.6441031694412231, -92.4637680053711],
    [0.13487352430820465, 0.6449599862098694, 2.9267449378967285, -62.481388092041016],
    [0.0, 0.0, 0.0, 1.0]
],
  "dcmmeta_reorient_transform": [
    [0.0, -1.0, 0.0, 69.0],
    [1.0, 0.0, 0.0, 0.0],
    [0.0, 0.0, -1.0, 41.0],
    [0.0, 0.0, 0.0, 1.0]
],
  "dcmmeta_shape": [70, 70, 42, 221],
  "dcmmeta_slice_dim": 2,
  "dcmmeta_version": 0.6,
  "global": {
    "const": {
      "AcquisitionMatrix": [70, 0, 0, 70],
      "AngioFlag": "N",
      "BitsAllocated": 16,
      "BitsStored": 12,
      "BodyPartExamined": "HEAD",
      "Columns": 490,
      "EchoNumbers": 1,
      "EchoTime": 22.0,
      "EchoTrainLength": 35,
      "FlipAngle": 90.0,
      "HighBit": 11,
      "ImageOrientationPatient": [0.99892671481705, 0.01114498757628, 0.04495784332841, -0.0012203490178, 0.97661622353073, -0.2149866569926],
      "ImagePositionPatient": [-736.66140977371, -705.57712390694, 209.13554571895],
      "ImageType": [
        "ORIGINAL",
        "PRIMARY",
        "M",
        "ND",
        "NORM",
        "MOSAIC"
],
      "ImagedNucleus": "1H",
      "ImagingFrequency": 123.254432,
      "InPlanePhaseEncodingDirection": "COL",
      "MRAcquisitionType": "2D",
      "MagneticFieldStrength": 3.0,
      "Manufacturer": "SIEMENS",
      "ManufacturerModelName": "Prisma",
      "Modality": "MR",
      "NumberOfAverages": 1.0,
      "NumberOfPhaseEncodingSteps": 70,
      "PercentPhaseFieldOfView": 100.0,
      "PercentSampling": 100.0,
      "PerformedProcedureStepStartTime": "112155.301000",
      "PhotometricInterpretation": "MONOCHROME2",
      "PixelBandwidth": 2165.0,
      "PixelRepresentation": 0,
      "PixelSpacing": [3.0, 3.0],
      "ProtocolName": "BOLD_ep2d_3x3x3_feature1",
      "RepetitionTime": 2000.0,
      "Rows": 490,
      "SAR": 0.13682201022892,
      "SamplesPerPixel": 1,
      "ScanOptions": "FS",
      "ScanningSequence": "EP",
      "SequenceName": "*epfid2d1_70",
      "SequenceVariant": "SK",
      "SeriesDescription": "BOLD_ep2d_3x3x3_feature1",
      "SeriesNumber": 8,
      "SeriesTime": "115926.120000",
      "SliceLocation": 86.649973994669,
      "SliceThickness": 3.0,
      "SmallestImagePixelValue": 0,
      "SoftwareVersions": "syngo MR E11",
      "SpacingBetweenSlices": 3.0000000663734,
      "SpecificCharacterSet": "ISO_IR 100",
      "StudyID": "1",
      "StudyTime": "112155.245000",
      "TransmitCoilName": "Body",
      "VariableFlipAngleFlag": "N",
      "WindowCenterWidthExplanation": "Algo1",
      "dBdt": 0.0},
    "slices": {}
  },
  "time": {
    "samples": {
      "AcquisitionNumber": [1, 2, 3, 4, 5, 6, 7, 8, 9, 10, 11, 12, 13, 14, 15, 16, 17, 18, 19, 20, 21, 22, 23, 24, 25, 26, 27, 28, 29, 30, 31, 32, 33, 34, 35, 36, 37, 38, 39, 40, 41, 42, 43, 44, 45, 46, 47, 48, 49, 50, 51, 52, 53, 54, 55, 56, 57, 58, 59, 60, 61, 62, 63, 64, 65, 66, 67, 68, 69, 70, 71, 72, 73, 74, 75, 76, 77, 78, 79, 80, 81, 82, 83, 84, 85, 86, 87, 88, 89, 90, 91, 92, 93, 94, 95, 96, 97, 98, 99, 100, 101, 102, 103, 104, 105, 106, 107, 108, 109, 110, 111, 112, 113, 114, 115, 116, 117, 118, 119, 120, 121, 122, 123, 124, 125, 126, 127, 128, 129, 130, 131, 132, 133, 134, 135, 136, 137, 138, 139, 140, 141, 142, 143, 144, 145, 146, 147, 148, 149, 150, 151, 152, 153, 154, 155, 156, 157, 158, 159, 160, 161, 162, 163, 164, 165, 166, 167, 168, 169, 170, 171, 172, 173, 174, 175, 176, 177, 178, 179, 180, 181, 182, 183, 184, 185, 186, 187, 188, 189, 190, 191, 192, 193, 194, 195, 196, 197, 198, 199, 200, 201, 202, 203, 204, 205, 206, 207, 208, 209, 210, 211, 212, 213, 214, 215, 216, 217, 218, 219, 220, 221],
      "AcquisitionTime": ["115920.962500", "115922.962500", "115924.962500", "115926.962500", "115928.962500", "115930.962500", "115932.962500", "115934.962500", "115936.962500", "115938.962500", "115940.962500", "115942.962500", "115944.962500", "115946.962500", "115948.962500", "115950.962500", "115952.962500", "115954.962500", "115956.962500", "115958.962500", "120000.962500", "120002.962500", "120004.962500", "120006.962500", "120008.962500", "120010.962500", "120012.962500", "120014.962500", "120016.962500", "120018.962500", "120020.962500", "120022.962500", "120024.962500", "120026.962500", "120028.962500", "120030.962500", "120032.962500", "120034.962500", "120036.962500", "120038.962500", "120040.962500", "120042.962500", "120044.962500", "120046.962500", "120048.962500", "120050.962500", "120052.962500", "120054.962500", "120056.962500", "120058.962500", "120100.962500", "120102.962500", "120104.962500", "120106.962500", "120108.962500", "120110.962500", "120112.962500", "120114.962500", "120116.962500", "120118.962500", "120120.962500", "120122.962500", "120124.962500", "120126.962500", "120128.962500", "120130.962500", "120132.962500", "120134.962500", "120136.962500", "120138.962500", "120140.962500", "120142.962500", "120144.962500", "120146.962500", "120148.962500", "120150.962500", "120152.962500", "120154.962500", "120156.962500", "120158.962500", "120200.962500", "120202.962500", "120204.962500", "120206.962500", "120208.962500", "120210.962500", "120212.962500", "120214.962500", "120216.962500", "120218.962500", "120220.962500", "120222.962500", "120224.962500", "120226.962500", "120228.962500", "120230.962500", "120232.962500", "120234.962500", "120236.962500", "120238.962500", "120240.962500", "120242.962500", "120244.962500", "120246.962500", "120248.962500", "120250.962500", "120252.962500", "120254.962500", "120256.962500", "120258.962500", "120300.962500", "120302.962500", "120304.962500", "120306.962500", "120308.962500", "120310.962500", "120312.962500", "120314.962500", "120316.962500", "120318.962500", "120320.962500", "120322.962500", "120324.962500", "120326.962500", "120328.962500", "120330.962500", "120332.962500", "120334.962500", "120336.962500", "120338.962500", "120340.962500", "120342.962500", "120344.962500", "120346.962500", "120348.962500", "120350.962500", "120352.962500", "120354.962500", "120356.962500", "120358.962500", "120400.962500", "120402.962500", "120404.962500", "120406.962500", "120408.962500", "120410.962500", "120412.962500", "120414.962500", "120416.962500", "120418.962500", "120420.962500", "120422.962500", "120424.962500", "120426.962500", "120428.962500", "120430.962500", "120432.962500", "120434.962500", "120436.962500", "120438.962500", "120440.962500", "120442.962500", "120444.962500", "120446.962500", "120448.962500", "120450.962500", "120452.962500", "120454.962500", "120456.962500", "120458.962500", "120500.962500", "120502.962500", "120504.962500", "120506.962500", "120508.962500", "120510.962500", "120512.962500", "120514.962500", "120516.962500", "120518.962500", "120520.962500", "120522.962500", "120524.962500", "120526.962500", "120528.962500", "120530.962500", "120532.962500", "120534.962500", "120536.962500", "120538.962500", "120540.962500", "120542.962500", "120544.962500", "120546.962500", "120548.962500", "120550.962500", "120552.962500", "120554.962500", "120556.962500", "120558.962500", "120600.962500", "120602.962500", "120604.962500", "120606.962500", "120608.962500", "120610.962500", "120612.962500", "120614.962500", "120616.962500", "120618.962500", "120620.962500", "120622.962500", "120624.962500", "120626.962500", "120628.962500", "120630.962500", "120632.962500", "120634.962500", "120636.962500", "120638.962500", "120640.962500"],
      "ContentTime": ["115926.123000", "115926.127000", "120006.118000", "120006.129000", "120006.132000", "120006.135000", "120006.137000", "120006.140000", "120006.143000", "120006.145000", "120006.148000", "120006.154000", "120006.156000", "120006.159000", "120006.162000", "120006.168000", "120006.171000", "120006.173000", "120006.176000", "120006.179000", "120006.181000", "120006.184000", "120046.118000", "120046.122000", "120046.124000", "120046.127000", "120046.129000", "120046.132000", "120046.135000", "120046.137000", "120046.140000", "120046.143000", "120046.145000", "120046.148000", "120046.151000", "120046.154000", "120046.156000", "120046.159000", "120046.161000", "120046.164000", "120046.167000", "120046.169000", "120126.119000", "120126.122000", "120126.124000", "120126.127000", "120126.130000", "120126.132000", "120126.135000", "120126.138000", "120126.140000", "120126.143000", "120126.146000", "120126.148000", "120126.151000", "120126.154000", "120126.156000", "120126.159000", "120126.162000", "120126.164000", "120126.167000", "120126.170000", "120206.119000", "120206.122000", "120206.124000", "120206.127000", "120206.130000", "120206.132000", "120206.135000", "120206.138000", "120206.140000", "120206.143000", "120206.146000", "120206.148000", "120206.151000", "120206.154000", "120206.156000", "120206.159000", "120206.162000", "120206.164000", "120206.167000", "120206.170000", "120246.118000", "120246.121000", "120246.123000", "120246.126000", "120246.129000", "120246.131000", "120246.134000", "120246.137000", "120246.139000", "120246.142000", "120246.145000", "120246.147000", "120246.150000", "120246.153000", "120246.155000", "120246.158000", "120246.161000", "120246.163000", "120246.166000", "120246.169000", "120326.119000", "120326.122000", "120326.124000", "120326.127000", "120326.129000", "120326.132000", "120326.135000", "120326.138000", "120326.140000", "120326.143000", "120326.146000", "120326.152000", "120326.154000", "120326.157000", "120326.160000", "120326.162000", "120326.165000", "120326.168000", "120326.171000", "120326.173000", "120406.119000", "120406.122000", "120406.124000", "120406.127000", "120406.130000", "120406.133000", "120406.135000", "120406.138000", "120406.140000", "120406.143000", "120406.146000", "120406.148000", "120406.151000", "120406.154000", "120406.157000", "120406.159000", "120406.162000", "120406.165000", "120406.167000", "120406.170000", "120446.119000", "120446.122000", "120446.124000", "120446.127000", "120446.130000", "120446.132000", "120446.135000", "120446.138000", "120446.140000", "120446.143000", "120446.146000", "120446.148000", "120446.151000", "120446.154000", "120446.156000", "120446.159000", "120446.162000", "120446.164000", "120446.167000", "120446.170000", "120526.119000", "120526.122000", "120526.124000", "120526.127000", "120526.130000", "120526.132000", "120526.135000", "120526.138000", "120526.140000", "120526.143000", "120526.146000", "120526.148000", "120526.151000", "120526.154000", "120526.156000", "120526.159000", "120526.162000", "120526.164000", "120526.167000", "120526.170000", "120606.119000", "120606.122000", "120606.125000", "120606.127000", "120606.130000", "120606.133000", "120606.135000", "120606.138000", "120606.140000", "120606.143000", "120606.146000", "120606.149000", "120606.151000", "120606.154000", "120606.157000", "120606.159000", "120606.162000", "120606.165000", "120606.167000", "120606.170000", "120642.877000", "120642.879000", "120642.882000", "120642.885000", "120642.888000", "120642.890000", "120642.893000", "120642.896000", "120642.899000", "120642.901000", "120642.904000", "120642.911000", "120642.916000", "120642.919000", "120642.924000", "120642.927000", "120642.930000", "120642.932000", "120642.935000"],
      "InstanceCreationTime": ["115926.123000", "115926.127000", "120006.118000", "120006.129000", "120006.132000", "120006.135000", "120006.137000", "120006.140000", "120006.143000", "120006.145000", "120006.148000", "120006.154000", "120006.156000", "120006.159000", "120006.162000", "120006.168000", "120006.171000", "120006.173000", "120006.176000", "120006.179000", "120006.181000", "120006.184000", "120046.118000", "120046.122000", "120046.124000", "120046.127000", "120046.129000", "120046.132000", "120046.135000", "120046.137000", "120046.140000", "120046.143000", "120046.145000", "120046.148000", "120046.151000", "120046.154000", "120046.156000", "120046.159000", "120046.161000", "120046.164000", "120046.167000", "120046.169000", "120126.119000", "120126.122000", "120126.124000", "120126.127000", "120126.130000", "120126.132000", "120126.135000", "120126.138000", "120126.140000", "120126.143000", "120126.146000", "120126.148000", "120126.151000", "120126.154000", "120126.156000", "120126.159000", "120126.162000", "120126.164000", "120126.167000", "120126.170000", "120206.119000", "120206.122000", "120206.124000", "120206.127000", "120206.130000", "120206.132000", "120206.135000", "120206.138000", "120206.140000", "120206.143000", "120206.146000", "120206.148000", "120206.151000", "120206.154000", "120206.156000", "120206.159000", "120206.162000", "120206.164000", "120206.167000", "120206.170000", "120246.118000", "120246.121000", "120246.123000", "120246.126000", "120246.129000", "120246.131000", "120246.134000", "120246.137000", "120246.139000", "120246.142000", "120246.145000", "120246.147000", "120246.150000", "120246.153000", "120246.155000", "120246.158000", "120246.161000", "120246.163000", "120246.166000", "120246.169000", "120326.119000", "120326.122000", "120326.124000", "120326.127000", "120326.129000", "120326.132000", "120326.135000", "120326.138000", "120326.140000", "120326.143000", "120326.146000", "120326.152000", "120326.154000", "120326.157000", "120326.160000", "120326.162000", "120326.165000", "120326.168000", "120326.171000", "120326.173000", "120406.119000", "120406.122000", "120406.124000", "120406.127000", "120406.130000", "120406.133000", "120406.135000", "120406.138000", "120406.140000", "120406.143000", "120406.146000", "120406.148000", "120406.151000", "120406.154000", "120406.157000", "120406.159000", "120406.162000", "120406.165000", "120406.167000", "120406.170000", "120446.119000", "120446.122000", "120446.124000", "120446.127000", "120446.130000", "120446.132000", "120446.135000", "120446.138000", "120446.140000", "120446.143000", "120446.146000", "120446.148000", "120446.151000", "120446.154000", "120446.156000", "120446.159000", "120446.162000", "120446.164000", "120446.167000", "120446.170000", "120526.119000", "120526.122000", "120526.124000", "120526.127000", "120526.130000", "120526.132000", "120526.135000", "120526.138000", "120526.140000", "120526.143000", "120526.146000", "120526.148000", "120526.151000", "120526.154000", "120526.156000", "120526.159000", "120526.162000", "120526.164000", "120526.167000", "120526.170000", "120606.119000", "120606.122000", "120606.125000", "120606.127000", "120606.130000", "120606.133000", "120606.135000", "120606.138000", "120606.140000", "120606.143000", "120606.146000", "120606.149000", "120606.151000", "120606.154000", "120606.157000", "120606.159000", "120606.162000", "120606.165000", "120606.167000", "120606.170000", "120642.877000", "120642.879000", "120642.882000", "120642.885000", "120642.888000", "120642.890000", "120642.893000", "120642.896000", "120642.899000", "120642.901000", "120642.904000", "120642.911000", "120642.916000", "120642.919000", "120642.924000", "120642.927000", "120642.930000", "120642.932000", "120642.935000"],
      "InstanceNumber": [1, 2, 3, 4, 5, 6, 7, 8, 9, 10, 11, 12, 13, 14, 15, 16, 17, 18, 19, 20, 21, 22, 23, 24, 25, 26, 27, 28, 29, 30, 31, 32, 33, 34, 35, 36, 37, 38, 39, 40, 41, 42, 43, 44, 45, 46, 47, 48, 49, 50, 51, 52, 53, 54, 55, 56, 57, 58, 59, 60, 61, 62, 63, 64, 65, 66, 67, 68, 69, 70, 71, 72, 73, 74, 75, 76, 77, 78, 79, 80, 81, 82, 83, 84, 85, 86, 87, 88, 89, 90, 91, 92, 93, 94, 95, 96, 97, 98, 99, 100, 101, 102, 103, 104, 105, 106, 107, 108, 109, 110, 111, 112, 113, 114, 115, 116, 117, 118, 119, 120, 121, 122, 123, 124, 125, 126, 127, 128, 129, 130, 131, 132, 133, 134, 135, 136, 137, 138, 139, 140, 141, 142, 143, 144, 145, 146, 147, 148, 149, 150, 151, 152, 153, 154, 155, 156, 157, 158, 159, 160, 161, 162, 163, 164, 165, 166, 167, 168, 169, 170, 171, 172, 173, 174, 175, 176, 177, 178, 179, 180, 181, 182, 183, 184, 185, 186, 187, 188, 189, 190, 191, 192, 193, 194, 195, 196, 197, 198, 199, 200, 201, 202, 203, 204, 205, 206, 207, 208, 209, 210, 211, 212, 213, 214, 215, 216, 217, 218, 219, 220, 221],
      "LargestImagePixelValue": [2607, 2607, 2622, 2572, 2603, 2676, 2804, 2599, 2601, 2759, 2449, 2683, 2599, 2756, 2504, 2810, 2599, 2795, 2699, 2612, 2519, 2859, 2895, 2678, 2689, 2580, 2564, 2483, 2391, 2546, 2443, 2618, 2525, 2392, 2368, 2408, 2680, 2331, 2590, 2392, 2340, 2503, 2412, 2394, 2464, 2489, 2413, 2403, 2540, 2561, 2486, 2414, 2569, 2576, 2289, 2456, 2596, 2464, 2506, 2447, 2614, 2599, 2579, 2339, 2461, 2524, 3184, 2519, 2403, 2650, 2383, 2421, 2475, 2651, 2446, 2470, 2598, 2388, 2366, 2347, 2662, 2369, 2488, 2395, 2448, 2432, 2512, 2297, 2590, 2382, 2511, 2629, 2605, 2632, 2560, 2370, 2718, 2672, 2603, 2406, 2438, 2665, 2330, 2401, 2336, 2565, 2504, 2499, 2591, 2474, 2405, 2612, 2299, 2640, 2460, 2568, 2544, 2601, 2387, 2423, 2592, 2688, 2443, 2507, 2472, 2574, 2563, 2380, 2655, 2270, 2449, 2514, 2383, 2504, 2670, 2433, 2509, 2620, 2930, 2566, 2440, 2739, 2675, 2338, 2741, 2372, 2384, 2451, 2528, 2460, 2422, 2577, 2514, 2515, 2463, 2427, 2515, 2418, 2543, 2412, 2382, 2376, 2394, 2327, 2473, 2555, 2386, 2786, 2352, 2459, 2590, 2410, 2455, 2387, 2536, 2587, 2572, 2459, 2536, 2577, 2482, 2356, 2405, 2384, 2556, 2749, 2590, 2559, 2459, 2510, 2504, 2504, 2419, 2613, 2390, 2575, 2289, 2729, 2418, 2331, 2490, 2494, 2417, 2683, 2435, 2364, 2551, 2456, 2477, 2577, 2561, 2644, 2525, 2470, 2797, 2603, 2638, 2581, 2547, 2588, 2608],
      "WindowCenter": [854.0, 853.0, 853.0, 853.0, 852.0, 852.0, 853.0, 853.0, 852.0, 853.0, 853.0, 854.0, 853.0, 854.0, 854.0, 853.0, 853.0, 853.0, 854.0, 853.0, 852.0, 852.0, 852.0, 852.0, 853.0, 852.0, 853.0, 854.0, 854.0, 854.0, 853.0, 853.0, 854.0, 854.0, 853.0, 853.0, 853.0, 854.0, 855.0, 855.0, 854.0, 855.0, 855.0, 855.0, 855.0, 854.0, 854.0, 853.0, 853.0, 852.0, 853.0, 853.0, 853.0, 853.0, 854.0, 853.0, 853.0, 853.0, 851.0, 851.0, 852.0, 852.0, 853.0, 853.0, 853.0, 853.0, 852.0, 852.0, 853.0, 853.0, 853.0, 851.0, 851.0, 852.0, 852.0, 853.0, 853.0, 854.0, 854.0, 854.0, 854.0, 854.0, 853.0, 853.0, 853.0, 853.0, 854.0, 854.0, 854.0, 854.0, 854.0, 854.0, 853.0, 853.0, 852.0, 851.0, 852.0, 851.0, 852.0, 853.0, 853.0, 854.0, 854.0, 854.0, 853.0, 853.0, 853.0, 853.0, 853.0, 854.0, 853.0, 854.0, 855.0, 856.0, 854.0, 854.0, 854.0, 854.0, 853.0, 853.0, 852.0, 852.0, 852.0, 852.0, 852.0, 853.0, 853.0, 853.0, 853.0, 854.0, 854.0, 854.0, 853.0, 853.0, 855.0, 854.0, 854.0, 854.0, 853.0, 853.0, 853.0, 853.0, 852.0, 852.0, 854.0, 855.0, 855.0, 855.0, 854.0, 854.0, 854.0, 853.0, 853.0, 854.0, 854.0, 854.0, 853.0, 854.0, 854.0, 853.0, 854.0, 854.0, 854.0, 853.0, 853.0, 854.0, 853.0, 853.0, 853.0, 853.0, 853.0, 854.0, 854.0, 854.0, 854.0, 854.0, 854.0, 854.0, 854.0, 853.0, 854.0, 854.0, 854.0, 854.0, 854.0, 854.0, 854.0, 854.0, 854.0, 854.0, 854.0, 854.0, 853.0, 854.0, 853.0, 853.0, 853.0, 853.0, 854.0, 854.0, 854.0, 854.0, 853.0, 853.0, 854.0, 853.0, 853.0, 853.0, 853.0, 853.0, 853.0, 853.0, 853.0, 853.0, 854.0, 854.0, 854.0, 854.0, 854.0, 854.0, 853.0],
      "WindowWidth": [1916.0, 1913.0, 1912.0, 1913.0, 1910.0, 1911.0, 1914.0, 1912.0, 1910.0, 1914.0, 1910.0, 1916.0, 1913.0, 1916.0, 1914.0, 1913.0, 1912.0, 1916.0, 1915.0, 1912.0, 1910.0, 1912.0, 1913.0, 1911.0, 1913.0, 1909.0, 1913.0, 1914.0, 1914.0, 1916.0, 1911.0, 1913.0, 1913.0, 1912.0, 1910.0, 1907.0, 1915.0, 1912.0, 1919.0, 1917.0, 1913.0, 1917.0, 1917.0, 1917.0, 1916.0, 1914.0, 1912.0, 1910.0, 1909.0, 1909.0, 1910.0, 1909.0, 1912.0, 1912.0, 1911.0, 1911.0, 1912.0, 1909.0, 1904.0, 1903.0, 1911.0, 1910.0, 1913.0, 1910.0, 1909.0, 1911.0, 1912.0, 1909.0, 1908.0, 1911.0, 1908.0, 1905.0, 1906.0, 1910.0, 1908.0, 1913.0, 1913.0, 1912.0, 1912.0, 1912.0, 1914.0, 1911.0, 1912.0, 1911.0, 1910.0, 1911.0, 1913.0, 1913.0, 1915.0, 1913.0, 1915.0, 1914.0, 1913.0, 1911.0, 1908.0, 1904.0, 1910.0, 1907.0, 1911.0, 1910.0, 1910.0, 1915.0, 1910.0, 1911.0, 1909.0, 1912.0, 1911.0, 1910.0, 1912.0, 1913.0, 1910.0, 1917.0, 1916.0, 1923.0, 1915.0, 1916.0, 1913.0, 1914.0, 1912.0, 1912.0, 1910.0, 1910.0, 1909.0, 1908.0, 1907.0, 1912.0, 1910.0, 1908.0, 1912.0, 1912.0, 1912.0, 1913.0, 1910.0, 1912.0, 1919.0, 1915.0, 1914.0, 1917.0, 1916.0, 1911.0, 1907.0, 1912.0, 1910.0, 1906.0, 1917.0, 1915.0, 1915.0, 1917.0, 1914.0, 1914.0, 1911.0, 1914.0, 1911.0, 1914.0, 1913.0, 1912.0, 1912.0, 1912.0, 1913.0, 1912.0, 1913.0, 1913.0, 1914.0, 1910.0, 1912.0, 1915.0, 1909.0, 1914.0, 1912.0, 1910.0, 1913.0, 1914.0, 1913.0, 1914.0, 1914.0, 1916.0, 1916.0, 1913.0, 1917.0, 1914.0, 1913.0, 1913.0, 1912.0, 1914.0, 1914.0, 1919.0, 1917.0, 1916.0, 1915.0, 1915.0, 1915.0, 1914.0, 1911.0, 1915.0, 1910.0, 1911.0, 1908.0, 1916.0, 1914.0, 1914.0, 1913.0, 1913.0, 1910.0, 1913.0, 1913.0, 1909.0, 1911.0, 1910.0, 1910.0, 1911.0, 1909.0, 1913.0, 1913.0, 1911.0, 1917.0, 1913.0, 1914.0, 1913.0, 1914.0, 1916.0, 1912.0]
    },
    "slices": {}
  }
}