{
  "AcquisitionMatrixPE": 70,
  "AcquisitionNumber": 1,
  "AcquisitionTime": "12:29:27.672500",
  "BandwidthPerPixelPhaseEncode": 51.948,
  "BaseResolution": 70,
  "BodyPartExamined": "HEAD",
  "CoilCombinationMethod": "Sum of Squares",
  "ConsistencyInfo": "N4_VE11C_LATEST_20160120",
  "ConversionSoftware": "dcm2niix",
  "ConversionSoftwareVersion": "v1.0.20220720",
  "DerivedVendorReportedEchoSpacing": 0.000550001,
  "DeviceSerialNumber": "66061",
  "DwellTime": 3.3e-06,
  "EchoTime": 0.022,
  "EchoTrainLength": 35,
  "EffectiveEchoSpacing": 0.000275,
  "FlipAngle": 90,
  "HeudiconvVersion": "1.1.1",
  "ImageOrientationPatientDICOM": [0.999013, 0.0108882, 0.0430669, -0.00122054, 0.975857, -0.218405],
  "ImageOrientationText": "Tra>Cor(-12.6)>Sag(2.5)",
  "ImageType": [
    "ORIGINAL",
    "PRIMARY",
    "M",
    "ND",
    "NORM",
    "MOSAIC"
],
  "ImagingFrequency": 123.255,
  "InPlanePhaseEncodingDirectionDICOM": "COL",
  "InstitutionAddress": "Street StreetNo,City/1c4204/,District,KR,ZIP",
  "InstitutionName": "SKKU",
  "InstitutionalDepartmentName": "Department",
  "MRAcquisitionType": "2D",
  "MagneticFieldStrength": 3,
  "Manufacturer": "Siemens",
  "ManufacturersModelName": "Prisma",
  "MatrixCoilMode": "GRAPPA",
  "Modality": "MR",
  "NonlinearGradientCorrection": false,
  "ParallelReductionFactorInPlane": 2,
  "PartialFourier": 1,
  "PatientPosition": "HFS",
  "PercentPhaseFOV": 100,
  "PercentSampling": 100,
  "PhaseEncodingDirection": "j-",
  "PhaseEncodingSteps": 70,
  "PhaseResolution": 1,
  "PixelBandwidth": 2165,
  "ProcedureStepDescription": "Head^PI:Others",
  "ProtocolName": "BOLD_ep2d_3x3x3_dimension2",
  "PulseSequenceDetails": "%SiemensSeq%\\ep2d_pace",
  "ReceiveCoilActiveElements": "HC1-7",
  "ReceiveCoilName": "HeadNeck_64",
  "ReconMatrixPE": 70,
  "RefLinesPE": 24,
  "RepetitionTime": 2,
  "SAR": 0.118343,
  "ScanOptions": "FS",
  "ScanningSequence": "EP",
  "SequenceName": "*epfid2d1_70",
  "SequenceVariant": "SK",
  "SeriesDescription": "BOLD_ep2d_3x3x3_dimension2",
  "SeriesNumber": 7,
  "ShimSetting": [5047, 3729, 4455, 347, -66, -10, -24, 46],
  "SliceThickness": 3,
  "SliceTiming": [0.99, 0, 1.0375, 0.0475, 1.0825, 0.0925, 1.13, 0.14, 1.1775, 0.1875, 1.225, 0.235, 1.2725, 0.2825, 1.32, 0.33, 1.3675, 0.3775, 1.4125, 0.4225, 1.46, 0.47, 1.5075, 0.5175, 1.555, 0.565, 1.6025, 0.6125, 1.65, 0.66, 1.6975, 0.7075, 1.7425, 0.7525, 1.79, 0.8, 1.8375, 0.8475, 1.885, 0.895, 1.9325, 0.9425],
  "SoftwareVersions": "syngo MR E11",
  "SpacingBetweenSlices": 3,
  "StationName": "AWP66061",
  "TaskName": "dimension",
  "TotalReadoutTime": 0.018975,
  "TxRefAmp": 239.322,
  "dcmmeta_affine": [
    [-2.9970386028289795, -0.003661606926470995, 0.13321548700332642, 102.74732208251953],
    [-0.03266466408967972, 2.927572250366211, -0.654410719871521, -87.98460388183594],
    [0.12920059263706207, 0.6552152037620544, 2.92472243309021, -70.40921783447266],
    [0.0, 0.0, 0.0, 1.0]
],
  "dcmmeta_reorient_transform": [
    [0.0, -1.0, 0.0, 69.0],
    [1.0, 0.0, 0.0, 0.0],
    [0.0, 0.0, -1.0, 41.0],
    [0.0, 0.0, 0.0, 1.0]
],
  "dcmmeta_shape": [70, 70, 42, 437],
  "dcmmeta_slice_dim": 2,
  "dcmmeta_version": 0.6,
  "global": {
    "const": {
      "AcquisitionMatrix": [70, 0, 0, 70],
      "AngioFlag": "N",
      "BitsAllocated": 16,
      "BitsStored": 12,
      "BodyPartExamined": "HEAD",
      "Columns": 490,
      "EchoNumbers": 1,
      "EchoTime": 22.0,
      "EchoTrainLength": 35,
      "FlipAngle": 90.0,
      "HighBit": 11,
      "ImageOrientationPatient": [0.99901285879527, 0.01088822138832, 0.04306686193228, -0.001220535668, 0.97585743621826, -0.218405069699],
      "ImagePositionPatient": [-736.5656705059, -708.83681276588, 205.1773165342],
      "ImageType": [
        "ORIGINAL",
        "PRIMARY",
        "M",
        "ND",
        "NORM",
        "MOSAIC"
],
      "ImagedNucleus": "1H",
      "ImagingFrequency": 123.254626,
      "InPlanePhaseEncodingDirection": "COL",
      "MRAcquisitionType": "2D",
      "MagneticFieldStrength": 3.0,
      "Manufacturer": "SIEMENS",
      "ManufacturerModelName": "Prisma",
      "Modality": "MR",
      "NumberOfAverages": 1.0,
      "NumberOfPhaseEncodingSteps": 70,
      "PercentPhaseFieldOfView": 100.0,
      "PercentSampling": 100.0,
      "PerformedProcedureStepStartTime": "114228.565000",
      "PhotometricInterpretation": "MONOCHROME2",
      "PixelBandwidth": 2165.0,
      "PixelRepresentation": 0,
      "PixelSpacing": [3.0, 3.0],
      "ProtocolName": "BOLD_ep2d_3x3x3_dimension2",
      "RepetitionTime": 2000.0,
      "Rows": 490,
      "SAR": 0.11834281149959,
      "SamplesPerPixel": 1,
      "ScanOptions": "FS",
      "ScanningSequence": "EP",
      "SequenceName": "*epfid2d1_70",
      "SequenceVariant": "SK",
      "SeriesDescription": "BOLD_ep2d_3x3x3_dimension2",
      "SeriesNumber": 7,
      "SeriesTime": "122939.347000",
      "SliceLocation": 78.112733312557,
      "SliceThickness": 3.0,
      "SmallestImagePixelValue": 0,
      "SoftwareVersions": "syngo MR E11",
      "SpacingBetweenSlices": 3.0000001009566,
      "SpecificCharacterSet": "ISO_IR 100",
      "StudyID": "1",
      "StudyTime": "114228.511000",
      "TransmitCoilName": "Body",
      "VariableFlipAngleFlag": "N",
      "WindowCenterWidthExplanation": "Algo1",
      "dBdt": 0.0},
    "slices": {}
  },
  "time": {
    "samples": {
      "AcquisitionNumber": [1, 2, 3, 4, 5, 6, 7, 8, 9, 10, 11, 12, 13, 14, 15, 16, 17, 18, 19, 20, 21, 22, 23, 24, 25, 26, 27, 28, 29, 30, 31, 32, 33, 34, 35, 36, 37, 38, 39, 40, 41, 42, 43, 44, 45, 46, 47, 48, 49, 50, 51, 52, 53, 54, 55, 56, 57, 58, 59, 60, 61, 62, 63, 64, 65, 66, 67, 68, 69, 70, 71, 72, 73, 74, 75, 76, 77, 78, 79, 80, 81, 82, 83, 84, 85, 86, 87, 88, 89, 90, 91, 92, 93, 94, 95, 96, 97, 98, 99, 100, 101, 102, 103, 104, 105, 106, 107, 108, 109, 110, 111, 112, 113, 114, 115, 116, 117, 118, 119, 120, 121, 122, 123, 124, 125, 126, 127, 128, 129, 130, 131, 132, 133, 134, 135, 136, 137, 138, 139, 140, 141, 142, 143, 144, 145, 146, 147, 148, 149, 150, 151, 152, 153, 154, 155, 156, 157, 158, 159, 160, 161, 162, 163, 164, 165, 166, 167, 168, 169, 170, 171, 172, 173, 174, 175, 176, 177, 178, 179, 180, 181, 182, 183, 184, 185, 186, 187, 188, 189, 190, 191, 192, 193, 194, 195, 196, 197, 198, 199, 200, 201, 202, 203, 204, 205, 206, 207, 208, 209, 210, 211, 212, 213, 214, 215, 216, 217, 218, 219, 220, 221, 222, 223, 224, 225, 226, 227, 228, 229, 230, 231, 232, 233, 234, 235, 236, 237, 238, 239, 240, 241, 242, 243, 244, 245, 246, 247, 248, 249, 250, 251, 252, 253, 254, 255, 256, 257, 258, 259, 260, 261, 262, 263, 264, 265, 266, 267, 268, 269, 270, 271, 272, 273, 274, 275, 276, 277, 278, 279, 280, 281, 282, 283, 284, 285, 286, 287, 288, 289, 290, 291, 292, 293, 294, 295, 296, 297, 298, 299, 300, 301, 302, 303, 304, 305, 306, 307, 308, 309, 310, 311, 312, 313, 314, 315, 316, 317, 318, 319, 320, 321, 322, 323, 324, 325, 326, 327, 328, 329, 330, 331, 332, 333, 334, 335, 336, 337, 338, 339, 340, 341, 342, 343, 344, 345, 346, 347, 348, 349, 350, 351, 352, 353, 354, 355, 356, 357, 358, 359, 360, 361, 362, 363, 364, 365, 366, 367, 368, 369, 370, 371, 372, 373, 374, 375, 376, 377, 378, 379, 380, 381, 382, 383, 384, 385, 386, 387, 388, 389, 390, 391, 392, 393, 394, 395, 396, 397, 398, 399, 400, 401, 402, 403, 404, 405, 406, 407, 408, 409, 410, 411, 412, 413, 414, 415, 416, 417, 418, 419, 420, 421, 422, 423, 424, 425, 426, 427, 428, 429, 430, 431, 432, 433, 434, 435, 436, 437],
      "AcquisitionTime": ["122927.672500", "122929.672500", "122931.672500", "122933.672500", "122935.672500", "122937.672500", "122939.672500", "122941.672500", "122943.672500", "122945.672500", "122947.672500", "122949.672500", "122951.672500", "122953.672500", "122955.672500", "122957.672500", "122959.672500", "123001.672500", "123003.672500", "123005.672500", "123007.672500", "123009.672500", "123011.672500", "123013.672500", "123015.672500", "123017.672500", "123019.672500", "123021.672500", "123023.672500", "123025.672500", "123027.672500", "123029.672500", "123031.672500", "123033.672500", "123035.672500", "123037.672500", "123039.672500", "123041.672500", "123043.672500", "123045.672500", "123047.672500", "123049.672500", "123051.672500", "123053.672500", "123055.672500", "123057.672500", "123059.672500", "123101.672500", "123103.672500", "123105.672500", "123107.672500", "123109.672500", "123111.672500", "123113.672500", "123115.672500", "123117.672500", "123119.672500", "123121.672500", "123123.672500", "123125.672500", "123127.672500", "123129.672500", "123131.672500", "123133.672500", "123135.672500", "123137.672500", "123139.672500", "123141.672500", "123143.672500", "123145.672500", "123147.672500", "123149.672500", "123151.672500", "123153.672500", "123155.672500", "123157.672500", "123159.672500", "123201.672500", "123203.672500", "123205.672500", "123207.672500", "123209.672500", "123211.672500", "123213.672500", "123215.672500", "123217.672500", "123219.672500", "123221.672500", "123223.672500", "123225.672500", "123227.672500", "123229.672500", "123231.672500", "123233.672500", "123235.672500", "123237.672500", "123239.672500", "123241.672500", "123243.672500", "123245.672500", "123247.672500", "123249.672500", "123251.672500", "123253.672500", "123255.672500", "123257.672500", "123259.672500", "123301.672500", "123303.672500", "123305.672500", "123307.672500", "123309.672500", "123311.672500", "123313.672500", "123315.672500", "123317.672500", "123319.672500", "123321.672500", "123323.672500", "123325.672500", "123327.672500", "123329.672500", "123331.672500", "123333.672500", "123335.672500", "123337.672500", "123339.672500", "123341.672500", "123343.672500", "123345.672500", "123347.672500", "123349.672500", "123351.672500", "123353.672500", "123355.672500", "123357.672500", "123359.672500", "123401.672500", "123403.672500", "123405.672500", "123407.672500", "123409.672500", "123411.672500", "123413.672500", "123415.672500", "123417.672500", "123419.672500", "123421.672500", "123423.672500", "123425.672500", "123427.672500", "123429.672500", "123431.672500", "123433.672500", "123435.672500", "123437.672500", "123439.672500", "123441.672500", "123443.672500", "123445.672500", "123447.672500", "123449.672500", "123451.672500", "123453.672500", "123455.672500", "123457.672500", "123459.672500", "123501.672500", "123503.672500", "123505.672500", "123507.672500", "123509.672500", "123511.672500", "123513.672500", "123515.672500", "123517.672500", "123519.672500", "123521.672500", "123523.672500", "123525.672500", "123527.672500", "123529.672500", "123531.672500", "123533.672500", "123535.672500", "123537.672500", "123539.672500", "123541.672500", "123543.672500", "123545.672500", "123547.672500", "123549.672500", "123551.672500", "123553.672500", "123555.672500", "123557.672500", "123559.672500", "123601.672500", "123603.672500", "123605.672500", "123607.672500", "123609.672500", "123611.672500", "123613.672500", "123615.672500", "123617.672500", "123619.672500", "123621.672500", "123623.672500", "123625.672500", "123627.672500", "123629.672500", "123631.672500", "123633.672500", "123635.672500", "123637.672500", "123639.672500", "123641.672500", "123643.672500", "123645.672500", "123647.672500", "123649.672500", "123651.672500", "123653.672500", "123655.672500", "123657.672500", "123659.672500", "123701.672500", "123703.672500", "123705.672500", "123707.672500", "123709.672500", "123711.672500", "123713.672500", "123715.672500", "123717.672500", "123719.672500", "123721.672500", "123723.672500", "123725.672500", "123727.672500", "123729.672500", "123731.672500", "123733.672500", "123735.672500", "123737.672500", "123739.672500", "123741.672500", "123743.672500", "123745.672500", "123747.672500", "123749.672500", "123751.672500", "123753.672500", "123755.672500", "123757.672500", "123759.672500", "123801.672500", "123803.672500", "123805.672500", "123807.672500", "123809.672500", "123811.672500", "123813.672500", "123815.672500", "123817.672500", "123819.672500", "123821.672500", "123823.672500", "123825.672500", "123827.672500", "123829.672500", "123831.672500", "123833.672500", "123835.672500", "123837.672500", "123839.672500", "123841.672500", "123843.672500", "123845.672500", "123847.672500", "123849.672500", "123851.672500", "123853.672500", "123855.672500", "123857.672500", "123859.672500", "123901.672500", "123903.672500", "123905.672500", "123907.672500", "123909.672500", "123911.672500", "123913.672500", "123915.672500", "123917.672500", "123919.672500", "123921.672500", "123923.672500", "123925.672500", "123927.672500", "123929.672500", "123931.672500", "123933.672500", "123935.672500", "123937.672500", "123939.672500", "123941.672500", "123943.672500", "123945.672500", "123947.672500", "123949.672500", "123951.672500", "123953.672500", "123955.672500", "123957.672500", "123959.672500", "124001.672500", "124003.672500", "124005.672500", "124007.672500", "124009.672500", "124011.672500", "124013.672500", "124015.672500", "124017.672500", "124019.672500", "124021.672500", "124023.672500", "124025.672500", "124027.672500", "124029.672500", "124031.672500", "124033.672500", "124035.672500", "124037.672500", "124039.672500", "124041.672500", "124043.672500", "124045.672500", "124047.672500", "124049.672500", "124051.672500", "124053.672500", "124055.672500", "124057.672500", "124059.672500", "124101.672500", "124103.672500", "124105.672500", "124107.672500", "124109.672500", "124111.672500", "124113.672500", "124115.672500", "124117.672500", "124119.672500", "124121.672500", "124123.672500", "124125.672500", "124127.672500", "124129.672500", "124131.672500", "124133.672500", "124135.672500", "124137.672500", "124139.672500", "124141.672500", "124143.672500", "124145.672500", "124147.672500", "124149.672500", "124151.672500", "124153.672500", "124155.672500", "124157.672500", "124159.672500", "124201.672500", "124203.672500", "124205.672500", "124207.672500", "124209.672500", "124211.672500", "124213.672500", "124215.672500", "124217.672500", "124219.672500", "124221.672500", "124223.672500", "124225.672500", "124227.672500", "124229.672500", "124231.672500", "124233.672500", "124235.672500", "124237.672500", "124239.672500", "124241.672500", "124243.672500", "124245.672500", "124247.672500", "124249.672500", "124251.672500", "124253.672500", "124255.672500", "124257.672500", "124259.672500", "124301.672500", "124303.672500", "124305.672500", "124307.672500", "124309.672500", "124311.672500", "124313.672500", "124315.672500", "124317.672500", "124319.672500", "124321.672500", "124323.672500", "124325.672500", "124327.672500", "124329.672500", "124331.672500", "124333.672500", "124335.672500", "124337.672500", "124339.672500", "124341.672500", "124343.672500", "124345.672500", "124347.672500", "124349.672500", "124351.672500", "124353.672500", "124355.672500", "124357.672500", "124359.672500"],
      "ContentTime": ["122939.351000", "122939.354000", "122939.357000", "122939.367000", "122939.370000", "123019.329000", "123019.332000", "123019.335000", "123019.338000", "123019.340000", "123019.343000", "123019.346000", "123019.348000", "123019.358000", "123019.361000", "123019.364000", "123019.371000", "123019.374000", "123019.377000", "123019.379000", "123019.382000", "123019.385000", "123019.387000", "123019.390000", "123019.393000", "123059.329000", "123059.332000", "123059.335000", "123059.338000", "123059.340000", "123059.343000", "123059.345000", "123059.348000", "123059.351000", "123059.353000", "123059.363000", "123059.366000", "123059.368000", "123059.371000", "123059.374000", "123059.377000", "123059.379000", "123059.382000", "123059.386000", "123059.389000", "123139.330000", "123139.333000", "123139.336000", "123139.339000", "123139.341000", "123139.344000", "123139.356000", "123139.359000", "123139.362000", "123139.365000", "123139.367000", "123139.370000", "123139.373000", "123139.377000", "123139.380000", "123139.382000", "123139.385000", "123139.388000", "123139.402000", "123139.404000", "123219.330000", "123219.332000", "123219.335000", "123219.338000", "123219.340000", "123219.343000", "123219.346000", "123219.348000", "123219.351000", "123219.353000", "123219.356000", "123219.359000", "123219.362000", "123219.365000", "123219.367000", "123219.370000", "123219.373000", "123219.376000", "123219.379000", "123219.382000", "123259.329000", "123259.332000", "123259.335000", "123259.338000", "123259.340000", "123259.343000", "123259.345000", "123259.348000", "123259.351000", "123259.353000", "123259.357000", "123259.360000", "123259.362000", "123259.365000", "123259.368000", "123259.371000", "123259.373000", "123259.376000", "123259.379000", "123259.382000", "123339.330000", "123339.333000", "123339.336000", "123339.338000", "123339.341000", "123339.344000", "123339.346000", "123339.349000", "123339.351000", "123339.354000", "123339.358000", "123339.361000", "123339.363000", "123339.366000", "123339.369000", "123339.372000", "123339.375000", "123339.378000", "123339.380000", "123339.383000", "123419.330000", "123419.332000", "123419.335000", "123419.338000", "123419.341000", "123419.343000", "123419.346000", "123419.349000", "123419.351000", "123419.354000", "123419.357000", "123419.360000", "123419.363000", "123419.365000", "123419.368000", "123419.371000", "123419.374000", "123419.376000", "123419.379000", "123419.393000", "123459.330000", "123459.332000", "123459.335000", "123459.338000", "123459.340000", "123459.343000", "123459.346000", "123459.348000", "123459.351000", "123459.354000", "123459.357000", "123459.360000", "123459.362000", "123459.365000", "123459.368000", "123459.372000", "123459.375000", "123459.378000", "123459.380000", "123459.383000", "123539.349000", "123539.353000", "123539.356000", "123539.359000", "123539.361000", "123539.365000", "123539.367000", "123539.370000", "123539.373000", "123539.376000", "123539.379000", "123539.381000", "123539.384000", "123539.386000", "123539.389000", "123539.392000", "123539.394000", "123539.398000", "123539.401000", "123539.403000", "123619.330000", "123619.333000", "123619.336000", "123619.339000", "123619.350000", "123619.353000", "123619.355000", "123619.358000", "123619.361000", "123619.364000", "123619.367000", "123619.370000", "123619.373000", "123619.376000", "123619.378000", "123619.381000", "123619.383000", "123619.386000", "123619.389000", "123619.391000", "123659.330000", "123659.332000", "123659.335000", "123659.338000", "123659.340000", "123659.343000", "123659.346000", "123659.349000", "123659.352000", "123659.354000", "123659.357000", "123659.360000", "123659.362000", "123659.365000", "123659.368000", "123659.370000", "123659.373000", "123659.376000", "123659.378000", "123659.381000", "123739.330000", "123739.332000", "123739.338000", "123739.341000", "123739.343000", "123739.347000", "123739.350000", "123739.353000", "123739.355000", "123739.358000", "123739.361000", "123739.364000", "123739.367000", "123739.370000", "123739.372000", "123739.375000", "123739.378000", "123739.380000", "123739.383000", "123739.385000", "123819.330000", "123819.333000", "123819.336000", "123819.339000", "123819.341000", "123819.344000", "123819.347000", "123819.350000", "123819.353000", "123819.355000", "123819.368000", "123819.370000", "123819.373000", "123819.376000", "123819.378000", "123819.381000", "123819.384000", "123819.386000", "123819.389000", "123819.392000", "123859.330000", "123859.333000", "123859.335000", "123859.338000", "123859.340000", "123859.343000", "123859.346000", "123859.349000", "123859.352000", "123859.355000", "123859.357000", "123859.360000", "123859.363000", "123859.366000", "123859.369000", "123859.371000", "123859.374000", "123859.377000", "123859.379000", "123859.382000", "123939.330000", "123939.333000", "123939.336000", "123939.339000", "123939.341000", "123939.345000", "123939.348000", "123939.350000", "123939.353000", "123939.356000", "123939.358000", "123939.361000", "123939.364000", "123939.367000", "123939.369000", "123939.372000", "123939.375000", "123939.377000", "123939.380000", "123939.382000", "124019.331000", "124019.333000", "124019.336000", "124019.339000", "124019.341000", "124019.345000", "124019.348000", "124019.350000", "124019.353000", "124019.356000", "124019.359000", "124019.362000", "124019.364000", "124019.367000", "124019.370000", "124019.372000", "124019.375000", "124019.378000", "124019.380000", "124019.383000", "124059.331000", "124059.333000", "124059.336000", "124059.339000", "124059.342000", "124059.345000", "124059.348000", "124059.350000", "124059.353000", "124059.356000", "124059.359000", "124059.361000", "124059.364000", "124059.367000", "124059.370000", "124059.372000", "124059.375000", "124059.378000", "124059.380000", "124059.383000", "124139.330000", "124139.332000", "124139.335000", "124139.338000", "124139.341000", "124139.344000", "124139.347000", "124139.349000", "124139.352000", "124139.355000", "124139.358000", "124139.361000", "124139.364000", "124139.366000", "124139.369000", "124139.372000", "124139.374000", "124139.390000", "124139.393000", "124139.396000", "124219.330000", "124219.332000", "124219.335000", "124219.338000", "124219.341000", "124219.344000", "124219.346000", "124219.349000", "124219.352000", "124219.354000", "124219.357000", "124219.360000", "124219.363000", "124219.365000", "124219.368000", "124219.371000", "124219.373000", "124219.376000", "124219.379000", "124219.381000", "124259.331000", "124259.333000", "124259.336000", "124259.340000", "124259.342000", "124259.345000", "124259.348000", "124259.351000", "124259.355000", "124259.357000", "124259.360000", "124259.363000", "124259.366000", "124259.368000", "124259.371000", "124259.374000", "124259.376000", "124259.379000", "124259.382000", "124259.384000", "124339.330000", "124339.332000", "124339.336000", "124339.339000", "124339.342000", "124339.344000", "124339.347000", "124339.350000", "124339.353000", "124339.355000", "124339.358000", "124339.361000", "124339.364000", "124339.366000", "124339.369000", "124339.372000", "124339.374000", "124339.377000", "124339.380000", "124339.382000", "124401.380000", "124401.383000", "124401.386000", "124401.389000", "124401.391000", "124401.394000", "124401.397000", "124401.399000", "124401.402000", "124401.405000", "124401.407000", "124401.410000"],
      "InstanceCreationTime": ["122939.351000", "122939.354000", "122939.357000", "122939.367000", "122939.370000", "123019.329000", "123019.332000", "123019.335000", "123019.338000", "123019.340000", "123019.343000", "123019.346000", "123019.348000", "123019.358000", "123019.361000", "123019.364000", "123019.371000", "123019.374000", "123019.377000", "123019.379000", "123019.382000", "123019.385000", "123019.387000", "123019.390000", "123019.393000", "123059.329000", "123059.332000", "123059.335000", "123059.338000", "123059.340000", "123059.343000", "123059.345000", "123059.348000", "123059.351000", "123059.353000", "123059.363000", "123059.366000", "123059.368000", "123059.371000", "123059.374000", "123059.377000", "123059.379000", "123059.382000", "123059.386000", "123059.389000", "123139.330000", "123139.333000", "123139.336000", "123139.339000", "123139.341000", "123139.344000", "123139.356000", "123139.359000", "123139.362000", "123139.365000", "123139.367000", "123139.370000", "123139.373000", "123139.377000", "123139.380000", "123139.382000", "123139.385000", "123139.388000", "123139.402000", "123139.404000", "123219.330000", "123219.332000", "123219.335000", "123219.338000", "123219.340000", "123219.343000", "123219.346000", "123219.348000", "123219.351000", "123219.353000", "123219.356000", "123219.359000", "123219.362000", "123219.365000", "123219.367000", "123219.370000", "123219.373000", "123219.376000", "123219.379000", "123219.382000", "123259.329000", "123259.332000", "123259.335000", "123259.338000", "123259.340000", "123259.343000", "123259.345000", "123259.348000", "123259.351000", "123259.353000", "123259.357000", "123259.360000", "123259.362000", "123259.365000", "123259.368000", "123259.371000", "123259.373000", "123259.376000", "123259.379000", "123259.382000", "123339.330000", "123339.333000", "123339.336000", "123339.338000", "123339.341000", "123339.344000", "123339.346000", "123339.349000", "123339.351000", "123339.354000", "123339.358000", "123339.361000", "123339.363000", "123339.366000", "123339.369000", "123339.372000", "123339.375000", "123339.378000", "123339.380000", "123339.383000", "123419.330000", "123419.332000", "123419.335000", "123419.338000", "123419.341000", "123419.343000", "123419.346000", "123419.349000", "123419.351000", "123419.354000", "123419.357000", "123419.360000", "123419.363000", "123419.365000", "123419.368000", "123419.371000", "123419.374000", "123419.376000", "123419.379000", "123419.393000", "123459.330000", "123459.332000", "123459.335000", "123459.338000", "123459.340000", "123459.343000", "123459.346000", "123459.348000", "123459.351000", "123459.354000", "123459.357000", "123459.360000", "123459.362000", "123459.365000", "123459.368000", "123459.372000", "123459.375000", "123459.378000", "123459.380000", "123459.383000", "123539.349000", "123539.353000", "123539.356000", "123539.359000", "123539.361000", "123539.365000", "123539.367000", "123539.370000", "123539.373000", "123539.376000", "123539.379000", "123539.381000", "123539.384000", "123539.386000", "123539.389000", "123539.392000", "123539.394000", "123539.398000", "123539.401000", "123539.403000", "123619.330000", "123619.333000", "123619.336000", "123619.339000", "123619.350000", "123619.353000", "123619.355000", "123619.358000", "123619.361000", "123619.364000", "123619.367000", "123619.370000", "123619.373000", "123619.376000", "123619.378000", "123619.381000", "123619.383000", "123619.386000", "123619.389000", "123619.391000", "123659.330000", "123659.332000", "123659.335000", "123659.338000", "123659.340000", "123659.343000", "123659.346000", "123659.349000", "123659.352000", "123659.354000", "123659.357000", "123659.360000", "123659.362000", "123659.365000", "123659.368000", "123659.370000", "123659.373000", "123659.376000", "123659.378000", "123659.381000", "123739.330000", "123739.332000", "123739.338000", "123739.341000", "123739.343000", "123739.347000", "123739.350000", "123739.353000", "123739.355000", "123739.358000", "123739.361000", "123739.364000", "123739.367000", "123739.370000", "123739.372000", "123739.375000", "123739.378000", "123739.380000", "123739.383000", "123739.385000", "123819.330000", "123819.333000", "123819.336000", "123819.339000", "123819.341000", "123819.344000", "123819.347000", "123819.350000", "123819.353000", "123819.355000", "123819.368000", "123819.370000", "123819.373000", "123819.376000", "123819.378000", "123819.381000", "123819.384000", "123819.386000", "123819.389000", "123819.392000", "123859.330000", "123859.333000", "123859.335000", "123859.338000", "123859.340000", "123859.343000", "123859.346000", "123859.349000", "123859.352000", "123859.355000", "123859.357000", "123859.360000", "123859.363000", "123859.366000", "123859.369000", "123859.371000", "123859.374000", "123859.377000", "123859.379000", "123859.382000", "123939.330000", "123939.333000", "123939.336000", "123939.339000", "123939.341000", "123939.345000", "123939.348000", "123939.350000", "123939.353000", "123939.356000", "123939.358000", "123939.361000", "123939.364000", "123939.367000", "123939.369000", "123939.372000", "123939.375000", "123939.377000", "123939.380000", "123939.382000", "124019.331000", "124019.333000", "124019.336000", "124019.339000", "124019.341000", "124019.345000", "124019.348000", "124019.350000", "124019.353000", "124019.356000", "124019.359000", "124019.362000", "124019.364000", "124019.367000", "124019.370000", "124019.372000", "124019.375000", "124019.378000", "124019.380000", "124019.383000", "124059.331000", "124059.333000", "124059.336000", "124059.339000", "124059.342000", "124059.345000", "124059.348000", "124059.350000", "124059.353000", "124059.356000", "124059.359000", "124059.361000", "124059.364000", "124059.367000", "124059.370000", "124059.372000", "124059.375000", "124059.378000", "124059.380000", "124059.383000", "124139.330000", "124139.332000", "124139.335000", "124139.338000", "124139.341000", "124139.344000", "124139.347000", "124139.349000", "124139.352000", "124139.355000", "124139.358000", "124139.361000", "124139.364000", "124139.366000", "124139.369000", "124139.372000", "124139.374000", "124139.390000", "124139.393000", "124139.396000", "124219.330000", "124219.332000", "124219.335000", "124219.338000", "124219.341000", "124219.344000", "124219.346000", "124219.349000", "124219.352000", "124219.354000", "124219.357000", "124219.360000", "124219.363000", "124219.365000", "124219.368000", "124219.371000", "124219.373000", "124219.376000", "124219.379000", "124219.381000", "124259.331000", "124259.333000", "124259.336000", "124259.340000", "124259.342000", "124259.345000", "124259.348000", "124259.351000", "124259.355000", "124259.357000", "124259.360000", "124259.363000", "124259.366000", "124259.368000", "124259.371000", "124259.374000", "124259.376000", "124259.379000", "124259.382000", "124259.384000", "124339.330000", "124339.332000", "124339.336000", "124339.339000", "124339.342000", "124339.344000", "124339.347000", "124339.350000", "124339.353000", "124339.355000", "124339.358000", "124339.361000", "124339.364000", "124339.366000", "124339.369000", "124339.372000", "124339.374000", "124339.377000", "124339.380000", "124339.382000", "124401.380000", "124401.383000", "124401.386000", "124401.389000", "124401.391000", "124401.394000", "124401.397000", "124401.399000", "124401.402000", "124401.405000", "124401.407000", "124401.410000"],
