{
  "AcquisitionMatrixPE": 70,
  "AcquisitionNumber": 1,
  "AcquisitionTime": "12:07:45.037500",
  "BandwidthPerPixelPhaseEncode": 51.948,
  "BaseResolution": 70,
  "BodyPartExamined": "HEAD",
  "CoilCombinationMethod": "Sum of Squares",
  "ConsistencyInfo": "N4_VE11C_LATEST_20160120",
  "ConversionSoftware": "dcm2niix",
  "ConversionSoftwareVersion": "v1.0.20220720",
  "DerivedVendorReportedEchoSpacing": 0.000550001,
  "DeviceSerialNumber": "66061",
  "DwellTime": 3.3e-06,
  "EchoTime": 0.022,
  "EchoTrainLength": 35,
  "EffectiveEchoSpacing": 0.000275,
  "FlipAngle": 90,
  "HeudiconvVersion": "1.1.1",
  "ImageOrientationPatientDICOM": [0.998927, 0.011145, 0.0449578, -0.00122035, 0.976616, -0.214987],
  "ImageOrientationText": "Tra>Cor(-12.4)>Sag(2.7)",
  "ImageType": [
    "ORIGINAL",
    "PRIMARY",
    "M",
    "ND",
    "NORM",
    "MOSAIC"
],
  "ImagingFrequency": 123.254,
  "InPlanePhaseEncodingDirectionDICOM": "COL",
  "InstitutionAddress": "Street StreetNo,City/1c4204/,District,KR,ZIP",
  "InstitutionName": "SKKU",
  "InstitutionalDepartmentName": "Department",
  "MRAcquisitionType": "2D",
  "MagneticFieldStrength": 3,
  "Manufacturer": "Siemens",
  "ManufacturersModelName": "Prisma",
  "MatrixCoilMode": "GRAPPA",
  "Modality": "MR",
  "NonlinearGradientCorrection": false,
  "ParallelReductionFactorInPlane": 2,
  "PartialFourier": 1,
  "PatientPosition": "HFS",
  "PercentPhaseFOV": 100,
  "PercentSampling": 100,
  "PhaseEncodingDirection": "j-",
  "PhaseEncodingSteps": 70,
  "PhaseResolution": 1,
  "PixelBandwidth": 2165,
  "ProcedureStepDescription": "Head^PI:Others",
  "ProtocolName": "BOLD_ep2d_3x3x3_feature2",
  "PulseSequenceDetails": "%SiemensSeq%\\ep2d_pace",
  "ReceiveCoilActiveElements": "HC1-7",
  "ReceiveCoilName": "HeadNeck_64",
  "ReconMatrixPE": 70,
  "RefLinesPE": 24,
  "RepetitionTime": 2,
  "SAR": 0.136822,
  "ScanOptions": "FS",
  "ScanningSequence": "EP",
  "SequenceName": "*epfid2d1_70",
  "SequenceVariant": "SK",
  "SeriesDescription": "BOLD_ep2d_3x3x3_feature2",
  "SeriesNumber": 9,
  "ShimSetting": [5042, 3718, 4479, 380, -136, 38, -29, 41],
  "SliceThickness": 3,
  "SliceTiming": [0.99, 0, 1.0375, 0.0475, 1.085, 0.095, 1.1325, 0.1425, 1.18, 0.19, 1.225, 0.235, 1.2725, 0.2825, 1.32, 0.33, 1.3675, 0.3775, 1.415, 0.425, 1.4625, 0.4725, 1.51, 0.52, 1.555, 0.565, 1.6025, 0.6125, 1.65, 0.66, 1.6975, 0.7075, 1.745, 0.755, 1.7925, 0.8025, 1.84, 0.85, 1.885, 0.895, 1.9325, 0.9425],
  "SoftwareVersions": "syngo MR E11",
  "SpacingBetweenSlices": 3,
  "StationName": "AWP66061",
  "TaskName": "feature",
  "TotalReadoutTime": 0.018975,
  "TxRefAmp": 251.894,
  "dcmmeta_affine": [
    [-2.9967801570892334, -0.0036610469687730074, 0.13890774548053741, 102.6637954711914],
    [-0.03343496099114418, 2.9298486709594727, -0.6441031694412231, -92.4637680053711],
    [0.13487352430820465, 0.6449599862098694, 2.9267449378967285, -62.481388092041016],
    [0.0, 0.0, 0.0, 1.0]
],
  "dcmmeta_reorient_transform": [
    [0.0, -1.0, 0.0, 69.0],
    [1.0, 0.0, 0.0, 0.0],
    [0.0, 0.0, -1.0, 41.0],
    [0.0, 0.0, 0.0, 1.0]
],
  "dcmmeta_shape": [70, 70, 42, 221],
  "dcmmeta_slice_dim": 2,
  "dcmmeta_version": 0.6,
  "global": {
    "const": {
      "AcquisitionMatrix": [70, 0, 0, 70],
      "AngioFlag": "N",
      "BitsAllocated": 16,
      "BitsStored": 12,
      "BodyPartExamined": "HEAD",
      "Columns": 490,
      "EchoNumbers": 1,
      "EchoTime": 22.0,
      "EchoTrainLength": 35,
      "FlipAngle": 90.0,
      "HighBit": 11,
      "ImageOrientationPatient": [0.99892671481705, 0.01114498757628, 0.04495784332841, -0.0012203490178, 0.97661622353073, -0.2149866569926],
      "ImagePositionPatient": [-736.66140977371, -705.57712390694, 209.13554571895],
      "ImageType": [
        "ORIGINAL",
        "PRIMARY",
        "M",
        "ND",
        "NORM",
        "MOSAIC"
],
      "ImagedNucleus": "1H",
      "ImagingFrequency": 123.254429,
      "InPlanePhaseEncodingDirection": "COL",
      "MRAcquisitionType": "2D",
      "MagneticFieldStrength": 3.0,
      "Manufacturer": "SIEMENS",
      "ManufacturerModelName": "Prisma",
      "Modality": "MR",
      "NumberOfAverages": 1.0,
      "NumberOfPhaseEncodingSteps": 70,
      "PercentPhaseFieldOfView": 100.0,
      "PercentSampling": 100.0,
      "PerformedProcedureStepStartTime": "112155.301000",
      "PhotometricInterpretation": "MONOCHROME2",
      "PixelBandwidth": 2165.0,
      "PixelRepresentation": 0,
      "PixelSpacing": [3.0, 3.0],
      "ProtocolName": "BOLD_ep2d_3x3x3_feature2",
      "RepetitionTime": 2000.0,
      "Rows": 490,
      "SAR": 0.13682201022892,
      "SamplesPerPixel": 1,
      "ScanOptions": "FS",
      "ScanningSequence": "EP",
      "SequenceName": "*epfid2d1_70",
      "SequenceVariant": "SK",
      "SeriesDescription": "BOLD_ep2d_3x3x3_feature2",
      "SeriesNumber": 9,
      "SeriesTime": "120825.835000",
      "SliceLocation": 86.649973994669,
      "SliceThickness": 3.0,
      "SmallestImagePixelValue": 0,
      "SoftwareVersions": "syngo MR E11",
      "SpacingBetweenSlices": 3.0000000663734,
      "SpecificCharacterSet": "ISO_IR 100",
      "StudyID": "1",
      "StudyTime": "112155.245000",
      "TransmitCoilName": "Body",
      "VariableFlipAngleFlag": "N",
      "WindowCenterWidthExplanation": "Algo1",
      "dBdt": 0.0},
    "slices": {}
  },
  "time": {
    "samples": {
      "AcquisitionNumber": [1, 2, 3, 4, 5, 6, 7, 8, 9, 10, 11, 12, 13, 14, 15, 16, 17, 18, 19, 20, 21, 22, 23, 24, 25, 26, 27, 28, 29, 30, 31, 32, 33, 34, 35, 36, 37, 38, 39, 40, 41, 42, 43, 44, 45, 46, 47, 48, 49, 50, 51, 52, 53, 54, 55, 56, 57, 58, 59, 60, 61, 62, 63, 64, 65, 66, 67, 68, 69, 70, 71, 72, 73, 74, 75, 76, 77, 78, 79, 80, 81, 82, 83, 84, 85, 86, 87, 88, 89, 90, 91, 92, 93, 94, 95, 96, 97, 98, 99, 100, 101, 102, 103, 104, 105, 106, 107, 108, 109, 110, 111, 112, 113, 114, 115, 116, 117, 118, 119, 120, 121, 122, 123, 124, 125, 126, 127, 128, 129, 130, 131, 132, 133, 134, 135, 136, 137, 138, 139, 140, 141, 142, 143, 144, 145, 146, 147, 148, 149, 150, 151, 152, 153, 154, 155, 156, 157, 158, 159, 160, 161, 162, 163, 164, 165, 166, 167, 168, 169, 170, 171, 172, 173, 174, 175, 176, 177, 178, 179, 180, 181, 182, 183, 184, 185, 186, 187, 188, 189, 190, 191, 192, 193, 194, 195, 196, 197, 198, 199, 200, 201, 202, 203, 204, 205, 206, 207, 208, 209, 210, 211, 212, 213, 214, 215, 216, 217, 218, 219, 220, 221],
      "AcquisitionTime": ["120745.037500", "120747.037500", "120749.037500", "120751.037500", "120753.037500", "120755.037500", "120757.037500", "120759.037500", "120801.037500", "120803.037500", "120805.037500", "120807.037500", "120809.037500", "120811.037500", "120813.037500", "120815.037500", "120817.037500", "120819.037500", "120821.037500", "120823.037500", "120825.037500", "120827.037500", "120829.037500", "120831.037500", "120833.037500", "120835.037500", "120837.037500", "120839.037500", "120841.037500", "120843.037500", "120845.037500", "120847.037500", "120849.037500", "120851.037500", "120853.037500", "120855.037500", "120857.037500", "120859.037500", "120901.037500", "120903.037500", "120905.037500", "120907.037500", "120909.037500", "120911.037500", "120913.037500", "120915.037500", "120917.037500", "120919.037500", "120921.037500", "120923.037500", "120925.037500", "120927.037500", "120929.037500", "120931.037500", "120933.037500", "120935.037500", "120937.037500", "120939.037500", "120941.037500", "120943.037500", "120945.037500", "120947.037500", "120949.037500", "120951.037500", "120953.037500", "120955.037500", "120957.037500", "120959.037500", "121001.037500", "121003.037500", "121005.037500", "121007.037500", "121009.037500", "121011.037500", "121013.037500", "121015.037500", "121017.037500", "121019.037500", "121021.037500", "121023.037500", "121025.037500", "121027.037500", "121029.037500", "121031.037500", "121033.037500", "121035.037500", "121037.037500", "121039.037500", "121041.037500", "121043.037500", "121045.037500", "121047.037500", "121049.037500", "121051.037500", "121053.037500", "121055.037500", "121057.037500", "121059.037500", "121101.037500", "121103.037500", "121105.037500", "121107.037500", "121109.037500", "121111.037500", "121113.037500", "121115.037500", "121117.037500", "121119.037500", "121121.037500", "121123.037500", "121125.037500", "121127.037500", "121129.037500", "121131.037500", "121133.037500", "121135.037500", "121137.037500", "121139.037500", "121141.037500", "121143.037500", "121145.037500", "121147.037500", "121149.037500", "121151.037500", "121153.037500", "121155.037500", "121157.037500", "121159.037500", "121201.037500", "121203.037500", "121205.037500", "121207.037500", "121209.037500", "121211.037500", "121213.037500", "121215.037500", "121217.037500", "121219.037500", "121221.037500", "121223.037500", "121225.037500", "121227.037500", "121229.037500", "121231.037500", "121233.037500", "121235.037500", "121237.037500", "121239.037500", "121241.037500", "121243.037500", "121245.037500", "121247.037500", "121249.037500", "121251.037500", "121253.037500", "121255.037500", "121257.037500", "121259.037500", "121301.037500", "121303.037500", "121305.037500", "121307.037500", "121309.037500", "121311.037500", "121313.037500", "121315.037500", "121317.037500", "121319.037500", "121321.037500", "121323.037500", "121325.037500", "121327.037500", "121329.037500", "121331.037500", "121333.037500", "121335.037500", "121337.037500", "121339.037500", "121341.037500", "121343.037500", "121345.037500", "121347.037500", "121349.037500", "121351.037500", "121353.037500", "121355.037500", "121357.037500", "121359.037500", "121401.037500", "121403.037500", "121405.037500", "121407.037500", "121409.037500", "121411.037500", "121413.037500", "121415.037500", "121417.037500", "121419.037500", "121421.037500", "121423.037500", "121425.037500", "121427.037500", "121429.037500", "121431.037500", "121433.037500", "121435.037500", "121437.037500", "121439.037500", "121441.037500", "121443.037500", "121445.037500", "121447.037500", "121449.037500", "121451.037500", "121453.037500", "121455.037500", "121457.037500", "121459.037500", "121501.037500", "121503.037500", "121505.037500"],
      "ContentTime": ["120825.838000", "120825.842000", "120825.844000", "120825.847000", "120825.850000", "120825.853000", "120825.855000", "120825.858000", "120825.860000", "120825.863000", "120825.866000", "120825.868000", "120825.871000", "120825.874000", "120825.876000", "120825.887000", "120825.890000", "120825.893000", "120825.896000", "120825.899000", "120845.813000", "120845.815000", "120845.818000", "120845.821000", "120845.824000", "120845.826000", "120845.837000", "120845.840000", "120845.843000", "120845.845000", "120925.813000", "120925.816000", "120925.819000", "120925.821000", "120925.824000", "120925.827000", "120925.829000", "120925.832000", "120925.835000", "120925.837000", "120925.840000", "120925.843000", "120925.845000", "120925.848000", "120925.851000", "120925.853000", "120925.856000", "120925.858000", "120925.861000", "120925.864000", "121005.814000", "121005.817000", "121005.819000", "121005.832000", "121005.835000", "121005.853000", "121005.861000", "121005.864000", "121005.871000", "121005.881000", "121005.884000", "121005.887000", "121005.896000", "121005.899000", "121005.901000", "121005.904000", "121005.907000", "121005.910000", "121005.913000", "121005.915000", "121045.814000", "121045.816000", "121045.819000", "121045.822000", "121045.825000", "121045.827000", "121045.830000", "121045.833000", "121045.835000", "121045.838000", "121045.841000", "121045.843000", "121045.846000", "121045.848000", "121045.851000", "121045.866000", "121045.869000", "121045.871000", "121045.874000", "121045.877000", "121125.812000", "121125.815000", "121125.822000", "121125.824000", "121125.827000", "121125.830000", "121125.832000", "121125.835000", "121125.838000", "121125.840000", "121125.843000", "121125.846000", "121125.849000", "121125.851000", "121125.854000", "121125.857000", "121125.859000", "121125.862000", "121125.865000", "121125.867000", "121205.813000", "121205.815000", "121205.818000", "121205.821000", "121205.824000", "121205.826000", "121205.829000", "121205.832000", "121205.834000", "121205.837000", "121205.840000", "121205.842000", "121205.845000", "121205.848000", "121205.850000", "121205.853000", "121205.856000", "121205.858000", "121205.861000", "121205.864000", "121245.814000", "121245.816000", "121245.819000", "121245.822000", "121245.825000", "121245.827000", "121245.843000", "121245.845000", "121245.848000", "121245.851000", "121245.853000", "121245.856000", "121245.859000", "121245.861000", "121245.864000", "121245.867000", "121245.869000", "121245.872000", "121245.875000", "121245.877000", "121325.812000", "121325.815000", "121325.818000", "121325.821000", "121325.824000", "121325.826000", "121325.829000", "121325.832000", "121325.834000", "121325.837000", "121325.840000", "121325.842000", "121325.845000", "121325.848000", "121325.850000", "121325.853000", "121325.856000", "121325.858000", "121325.861000", "121325.864000", "121405.813000", "121405.816000", "121405.818000", "121405.821000", "121405.831000", "121405.834000", "121405.837000", "121405.839000", "121405.842000", "121405.845000", "121405.847000", "121405.850000", "121405.853000", "121405.855000", "121405.858000", "121405.861000", "121405.863000", "121405.866000", "121405.869000", "121405.871000", "121445.813000", "121445.816000", "121445.819000", "121445.822000", "121445.825000", "121445.827000", "121445.830000", "121445.833000", "121445.835000", "121445.842000", "121445.845000", "121445.848000", "121445.850000", "121445.853000", "121445.856000", "121445.858000", "121445.861000", "121445.864000", "121445.866000", "121445.869000", "121506.860000", "121506.863000", "121506.866000", "121506.868000", "121506.871000", "121506.874000", "121506.876000", "121506.879000", "121506.882000", "121506.885000", "121506.887000"],
      "InstanceCreationTime": ["120825.838000", "120825.842000", "120825.844000", "120825.847000", "120825.850000", "120825.853000", "120825.855000", "120825.858000", "120825.860000", "120825.863000", "120825.866000", "120825.868000", "120825.871000", "120825.874000", "120825.876000", "120825.887000", "120825.890000", "120825.893000", "120825.896000", "120825.899000", "120845.813000", "120845.815000", "120845.818000", "120845.821000", "120845.824000", "120845.826000", "120845.837000", "120845.840000", "120845.843000", "120845.845000", "120925.813000", "120925.816000", "120925.819000", "120925.821000", "120925.824000", "120925.827000", "120925.829000", "120925.832000", "120925.835000", "120925.837000", "120925.840000", "120925.843000", "120925.845000", "120925.848000", "120925.851000", "120925.853000", "120925.856000", "120925.858000", "120925.861000", "120925.864000", "121005.814000", "121005.817000", "121005.819000", "121005.832000", "121005.835000", "121005.853000", "121005.861000", "121005.864000", "121005.871000", "121005.881000", "121005.884000", "121005.887000", "121005.896000", "121005.899000", "121005.901000", "121005.904000", "121005.907000", "121005.910000", "121005.913000", "121005.915000", "121045.814000", "121045.816000", "121045.819000", "121045.822000", "121045.825000", "121045.827000", "121045.830000", "121045.833000", "121045.835000", "121045.838000", "121045.841000", "121045.843000", "121045.846000", "121045.848000", "121045.851000", "121045.866000", "121045.869000", "121045.871000", "121045.874000", "121045.877000", "121125.812000", "121125.815000", "121125.822000", "121125.824000", "121125.827000", "121125.830000", "121125.832000", "121125.835000", "121125.838000", "121125.840000", "121125.843000", "121125.846000", "121125.849000", "121125.851000", "121125.854000", "121125.857000", "121125.859000", "121125.862000", "121125.865000", "121125.867000", "121205.813000", "121205.815000", "121205.818000", "121205.821000", "121205.824000", "121205.826000", "121205.829000", "121205.832000", "121205.834000", "121205.837000", "121205.840000", "121205.842000", "121205.845000", "121205.848000", "121205.850000", "121205.853000", "121205.856000", "121205.858000", "121205.861000", "121205.864000", "121245.814000", "121245.816000", "121245.819000", "121245.822000", "121245.825000", "121245.827000", "121245.843000", "121245.845000", "121245.848000", "121245.851000", "121245.853000", "121245.856000", "121245.859000", "121245.861000", "121245.864000", "121245.867000", "121245.869000", "121245.872000", "121245.875000", "121245.877000", "121325.812000", "121325.815000", "121325.818000", "121325.821000", "121325.824000", "121325.826000", "121325.829000", "121325.832000", "121325.834000", "121325.837000", "121325.840000", "121325.842000", "121325.845000", "121325.848000", "121325.850000", "121325.853000", "121325.856000", "121325.858000", "121325.861000", "121325.864000", "121405.813000", "121405.816000", "121405.818000", "121405.821000", "121405.831000", "121405.834000", "121405.837000", "121405.839000", "121405.842000", "121405.845000", "121405.847000", "121405.850000", "121405.853000", "121405.855000", "121405.858000", "121405.861000", "121405.863000", "121405.866000", "121405.869000", "121405.871000", "121445.813000", "121445.816000", "121445.819000", "121445.822000", "121445.825000", "121445.827000", "121445.830000", "121445.833000", "121445.835000", "121445.842000", "121445.845000", "121445.848000", "121445.850000", "121445.853000", "121445.856000", "121445.858000", "121445.861000", "121445.864000", "121445.866000", "121445.869000", "121506.860000", "121506.863000", "121506.866000", "121506.868000", "121506.871000", "121506.874000", "121506.876000", "121506.879000", "121506.882000", "121506.885000", "121506.887000"],
      "InstanceNumber": [1, 2, 3, 4, 5, 6, 7, 8, 9, 10, 11, 12, 13, 14, 15, 16, 17, 18, 19, 20, 21, 22, 23, 24, 25, 26, 27, 28, 29, 30, 31, 32, 33, 34, 35, 36, 37, 38, 39, 40, 41, 42, 43, 44, 45, 46, 47, 48, 49, 50, 51, 52, 53, 54, 55, 56, 57, 58, 59, 60, 61, 62, 63, 64, 65, 66, 67, 68, 69, 70, 71, 72, 73, 74, 75, 76, 77, 78, 79, 80, 81, 82, 83, 84, 85, 86, 87, 88, 89, 90, 91, 92, 93, 94, 95, 96, 97, 98, 99, 100, 101, 102, 103, 104, 105, 106, 107, 108, 109, 110, 111, 112, 113, 114, 115, 116, 117, 118, 119, 120, 121, 122, 123, 124, 125, 126, 127, 128, 129, 130, 131, 132, 133, 134, 135, 136, 137, 138, 139, 140, 141, 142, 143, 144, 145, 146, 147, 148, 149, 150, 151, 152, 153, 154, 155, 156, 157, 158, 159, 160, 161, 162, 163, 164, 165, 166, 167, 168, 169, 170, 171, 172, 173, 174, 175, 176, 177, 178, 179, 180, 181, 182, 183, 184, 185, 186, 187, 188, 189, 190, 191, 192, 193, 194, 195, 196, 197, 198, 199, 200, 201, 202, 203, 204, 205, 206, 207, 208, 209, 210, 211, 212, 213, 214, 215, 216, 217, 218, 219, 220, 221],
      "LargestImagePixelValue": [2562, 2846, 2300, 2696, 2428, 2366, 2524, 2487, 2567, 2285, 2391, 2514, 2509, 2639, 2298, 2216, 2587, 2341, 2476, 2364, 2592, 2402, 2385, 2425, 2370, 2378, 2541, 2509, 2382, 2564, 2543, 2553, 2219, 2362, 2667, 2545, 2669, 2358, 2436, 2665, 2535, 2534, 2441, 2458, 2486, 2330, 2444, 2539, 2386, 2764, 2692, 2469, 2427, 2519, 2424, 2610, 2591, 2323, 2576, 2502, 2223, 2508, 2639, 2412, 2784, 2549, 2415, 2501, 2425, 2561, 2481, 2355, 2281, 2466, 2283, 2198, 2541, 2255, 2562, 2616, 2584, 2643, 2390, 2641, 2491, 2536, 2497, 2587, 2472, 2366, 2473, 2566, 2271, 2377, 2430, 2287, 2674, 2440, 2641, 2694, 2547, 2680, 2762, 2414, 2448, 2636, 2545, 2172, 2592, 2321, 2392, 2446, 2433, 2445, 2417, 2292, 2609, 2504, 2407, 2526, 2593, 2308, 2630, 2289, 2615, 2440, 2519, 2582, 2334, 2468, 2958, 2619, 2677, 2480, 2416, 2508, 2498, 2304, 2447, 2583, 2340, 2546, 2267, 2466, 2615, 2640, 2548, 2483, 2553, 2437, 2314, 2358, 2208, 2312, 2305, 2334, 2484, 2235, 2521, 2069, 2119, 2351, 2494, 2386, 3396, 2817, 3340, 3109, 3251, 2539, 2497, 2351, 2417, 2483, 2454, 2392, 2261, 2510, 2383, 2666, 2394, 2387, 2451, 2562, 2607, 2563, 2201, 2531, 2546, 2596, 2405, 2684, 2286, 2628, 2458, 2551, 2299, 2643, 2596, 2241, 2424, 2454, 2571, 2422, 2484, 2394, 2151, 2447, 2607, 2440, 2788, 2529, 2587, 2381, 2581, 2389, 2203, 2607, 2383, 2636, 2555],
      "WindowCenter": [856.0, 853.0, 852.0, 853.0, 854.0, 853.0, 854.0, 854.0, 855.0, 855.0, 856.0, 856.0, 855.0, 855.0, 855.0, 855.0, 854.0, 855.0, 855.0, 854.0, 853.0, 853.0, 854.0, 854.0, 855.0, 855.0, 855.0, 854.0, 854.0, 854.0, 855.0, 855.0, 855.0, 854.0, 855.0, 854.0, 854.0, 854.0, 854.0, 855.0, 856.0, 856.0, 855.0, 855.0, 854.0, 854.0, 854.0, 854.0, 853.0, 854.0, 853.0, 854.0, 854.0, 854.0, 853.0, 856.0, 856.0, 856.0, 855.0, 854.0, 854.0, 853.0, 853.0, 854.0, 853.0, 853.0, 853.0, 855.0, 854.0, 853.0, 854.0, 854.0, 855.0, 856.0, 856.0, 856.0, 857.0, 857.0, 856.0, 855.0, 855.0, 855.0, 856.0, 855.0, 854.0, 854.0, 853.0, 853.0, 853.0, 852.0, 853.0, 854.0, 855.0, 856.0, 856.0, 856.0, 854.0, 854.0, 855.0, 856.0, 856.0, 855.0, 855.0, 855.0, 855.0, 855.0, 854.0, 853.0, 855.0, 855.0, 854.0, 855.0, 855.0, 857.0, 856.0, 856.0, 855.0, 855.0, 854.0, 855.0, 854.0, 854.0, 855.0, 855.0, 855.0, 854.0, 854.0, 853.0, 852.0, 853.0, 853.0, 852.0, 854.0, 854.0, 855.0, 855.0, 855.0, 855.0, 853.0, 853.0, 854.0, 854.0, 855.0, 854.0, 854.0, 854.0, 855.0, 854.0, 854.0, 856.0, 857.0, 856.0, 855.0, 856.0, 857.0, 857.0, 857.0, 857.0, 856.0, 857.0, 859.0, 859.0, 859.0, 858.0, 857.0, 856.0, 855.0, 854.0, 853.0, 853.0, 853.0, 854.0, 854.0, 854.0, 855.0, 856.0, 855.0, 855.0, 855.0, 855.0, 855.0, 854.0, 854.0, 855.0, 854.0, 855.0, 855.0, 855.0, 855.0, 855.0, 856.0, 856.0, 856.0, 856.0, 856.0, 855.0, 855.0, 855.0, 855.0, 855.0, 855.0, 855.0, 855.0, 856.0, 856.0, 856.0, 856.0, 855.0, 855.0, 855.0, 854.0, 855.0, 855.0, 855.0, 854.0, 854.0, 855.0, 856.0, 856.0, 856.0, 855.0],
      "WindowWidth": [1917.0, 1912.0, 1904.0, 1911.0, 1909.0, 1907.0, 1912.0, 1914.0, 1916.0, 1914.0, 1917.0, 1919.0, 1917.0, 1918.0, 1913.0, 1912.0, 1915.0, 1913.0, 1914.0, 1911.0, 1910.0, 1909.0, 1913.0, 1912.0, 1915.0, 1915.0, 1916.0, 1913.0, 1910.0, 1914.0, 1915.0, 1917.0, 1912.0, 1911.0, 1918.0, 1914.0, 1915.0, 1912.0, 1912.0, 1918.0, 1920.0, 1919.0, 1917.0, 1916.0, 1913.0, 1910.0, 1911.0, 1912.0, 1909.0, 1915.0, 1911.0, 1911.0, 1909.0, 1911.0, 1910.0, 1920.0, 1918.0, 1916.0, 1915.0, 1912.0, 1910.0, 1908.0, 1912.0, 1910.0, 1911.0, 1909.0, 1908.0, 1914.0, 1910.0, 1910.0, 1910.0, 1912.0, 1912.0, 1917.0, 1915.0, 1915.0, 1920.0, 1917.0, 1919.0, 1916.0, 1916.0, 1917.0, 1916.0, 1916.0, 1911.0, 1911.0, 1908.0, 1909.0, 1907.0, 1904.0, 1907.0, 1914.0, 1912.0, 1917.0, 1917.0, 1914.0, 1913.0, 1909.0, 1917.0, 1921.0, 1918.0, 1918.0, 1917.0, 1916.0, 1914.0, 1915.0, 1910.0, 1905.0, 1914.0, 1911.0, 1911.0, 1916.0, 1917.0, 1921.0, 1919.0, 1918.0, 1915.0, 1915.0, 1911.0, 1915.0, 1914.0, 1910.0, 1915.0, 1911.0, 1915.0, 1912.0, 1911.0, 1908.0, 1904.0, 1908.0, 1913.0, 1908.0, 1914.0, 1913.0, 1915.0, 1915.0, 1913.0, 1911.0, 1908.0, 1911.0, 1910.0, 1914.0, 1911.0, 1911.0, 1913.0, 1914.0, 1914.0, 1910.0, 1912.0, 1918.0, 1917.0, 1914.0, 1911.0, 1916.0, 1918.0, 1918.0, 1920.0, 1917.0, 1920.0, 1918.0, 1923.0, 1928.0, 1926.0, 1923.0, 1928.0, 1921.0, 1920.0, 1914.0, 1914.0, 1907.0, 1908.0, 1909.0, 1909.0, 1913.0, 1914.0, 1915.0, 1912.0, 1913.0, 1914.0, 1914.0, 1912.0, 1909.0, 1910.0, 1915.0, 1914.0, 1915.0, 1911.0, 1917.0, 1917.0, 1916.0, 1915.0, 1919.0, 1916.0, 1919.0, 1917.0, 1916.0, 1912.0, 1916.0, 1915.0, 1911.0, 1912.0, 1914.0, 1915.0, 1916.0, 1918.0, 1915.0, 1912.0, 1913.0, 1914.0, 1914.0, 1914.0, 1914.0, 1915.0, 1912.0, 1913.0, 1909.0, 1914.0, 1920.0, 1915.0, 1917.0, 1915.0]
    },
    "slices": {}
  }
}