{
  "AcquisitionMatrixPE": 70,
  "AcquisitionNumber": 1,
  "AcquisitionTime": "11:07:19.020000",
  "BandwidthPerPixelPhaseEncode": 51.948,
  "BaseResolution": 70,
  "BodyPartExamined": "HEAD",
  "CoilCombinationMethod": "Sum of Squares",
  "ConsistencyInfo": "N4_VE11C_LATEST_20160120",
  "ConversionSoftware": "dcm2niix",
  "ConversionSoftwareVersion": "v1.0.20220720",
  "DerivedVendorReportedEchoSpacing": 0.000550001,
  "DeviceSerialNumber": "66061",
  "DwellTime": 3.3e-06,
  "EchoTime": 0.022,
  "EchoTrainLength": 35,
  "EffectiveEchoSpacing": 0.000275,
  "FlipAngle": 90,
  "HeudiconvVersion": "1.1.1",
  "ImageOrientationPatientDICOM": [0.999523, 0.00688298, 0.0301225, -0.00122111, 0.982911, -0.184076],
  "ImageOrientationText": "Tra>Cor(-10.6)>Sag(1.8)",
  "ImageType": [
    "ORIGINAL",
    "PRIMARY",
    "M",
    "ND",
    "NORM",
    "MOSAIC"
],
  "ImagingFrequency": 123.254,
  "InPlanePhaseEncodingDirectionDICOM": "COL",
  "InstitutionAddress": "Street StreetNo,City/1c4204/,District,KR,ZIP",
  "InstitutionName": "SKKU",
  "InstitutionalDepartmentName": "Department",
  "MRAcquisitionType": "2D",
  "MagneticFieldStrength": 3,
  "Manufacturer": "Siemens",
  "ManufacturersModelName": "Prisma",
  "MatrixCoilMode": "GRAPPA",
  "Modality": "MR",
  "NonlinearGradientCorrection": false,
  "ParallelReductionFactorInPlane": 2,
  "PartialFourier": 1,
  "PatientPosition": "HFS",
  "PercentPhaseFOV": 100,
  "PercentSampling": 100,
  "PhaseEncodingDirection": "j-",
  "PhaseEncodingSteps": 70,
  "PhaseResolution": 1,
  "PixelBandwidth": 2165,
  "ProcedureStepDescription": "Head^PI:Others",
  "ProtocolName": "BOLD_ep2d_3x3x3_response2",
  "PulseSequenceDetails": "%SiemensSeq%\\ep2d_pace",
  "ReceiveCoilActiveElements": "HC1-7",
  "ReceiveCoilName": "HeadNeck_64",
  "ReconMatrixPE": 70,
  "RefLinesPE": 24,
  "RepetitionTime": 2,
  "SAR": 0.121406,
  "ScanOptions": "FS",
  "ScanningSequence": "EP",
  "SequenceName": "*epfid2d1_70",
  "SequenceVariant": "SK",
  "SeriesDescription": "BOLD_ep2d_3x3x3_response2",
  "SeriesNumber": 9,
  "ShimSetting": [5065, 3741, 4473, 490, -8, 71, -14, 62],
  "SliceThickness": 3,
  "SliceTiming": [0.99, 0, 1.0375, 0.0475, 1.085, 0.095, 1.1325, 0.1425, 1.1775, 0.1875, 1.225, 0.235, 1.2725, 0.2825, 1.32, 0.33, 1.3675, 0.3775, 1.415, 0.425, 1.4625, 0.4725, 1.5075, 0.5175, 1.555, 0.565, 1.6025, 0.6125, 1.65, 0.66, 1.6975, 0.7075, 1.745, 0.755, 1.79, 0.8025, 1.8375, 0.8475, 1.885, 0.895, 1.9325, 0.9425],
  "SoftwareVersions": "syngo MR E11",
  "SpacingBetweenSlices": 3,
  "StationName": "AWP66061",
  "TaskName": "response",
  "TotalReadoutTime": 0.018975,
  "TxRefAmp": 220.497,
  "dcmmeta_affine": [
    [-2.998567581176758, -0.0036633387207984924, 0.0926242396235466, 104.99015045166016],
    [-0.020648950710892677, 2.9487338066101074, -0.5518540740013123, -91.82987213134766],
    [0.09036752581596375, 0.5522280931472778, 2.9473509788513184, -56.98456954956055],
    [0.0, 0.0, 0.0, 1.0]
],
  "dcmmeta_reorient_transform": [
    [0.0, -1.0, 0.0, 69.0],
    [1.0, 0.0, 0.0, 0.0],
    [0.0, 0.0, -1.0, 41.0],
    [0.0, 0.0, 0.0, 1.0]
],
  "dcmmeta_shape": [70, 70, 42, 341],
  "dcmmeta_slice_dim": 2,
  "dcmmeta_version": 0.6,
  "global": {
    "const": {
      "AcquisitionMatrix": [70, 0, 0, 70],
      "AngioFlag": "N",
      "BitsAllocated": 16,
      "BitsStored": 12,
      "BodyPartExamined": "HEAD",
      "Columns": 490,
      "EchoNumbers": 1,
      "EchoTime": 22.0,
      "EchoTrainLength": 35,
      "FlipAngle": 90.0,
      "HighBit": 11,
      "ImageOrientationPatient": [0.9995225154862, 0.00688298359188, 0.03012250940754, -0.0012211128821, 0.98291124792182, -0.1840760375283],
      "ImagePositionPatient": [-737.46485641453, -712.57710450766, 198.95128384255],
      "ImageType": [
        "ORIGINAL",
        "PRIMARY",
        "M",
        "ND",
        "NORM",
        "MOSAIC"
],
      "ImagedNucleus": "1H",
      "ImagingFrequency": 123.254465,
      "InPlanePhaseEncodingDirection": "COL",
      "MRAcquisitionType": "2D",
      "MagneticFieldStrength": 3.0,
      "Manufacturer": "SIEMENS",
      "ManufacturerModelName": "Prisma",
      "Modality": "MR",
      "NumberOfAverages": 1.0,
      "NumberOfPhaseEncodingSteps": 70,
      "PercentPhaseFieldOfView": 100.0,
      "PercentSampling": 100.0,
      "PerformedProcedureStepStartTime": "102224.733000",
      "PhotometricInterpretation": "MONOCHROME2",
      "PixelBandwidth": 2165.0,
      "PixelRepresentation": 0,
      "PixelSpacing": [3.0, 3.0],
      "ProtocolName": "BOLD_ep2d_3x3x3_response2",
      "RepetitionTime": 2000.0,
      "Rows": 490,
      "SAR": 0.12140569659427,
      "SamplesPerPixel": 1,
      "ScanOptions": "FS",
      "ScanningSequence": "EP",
      "SequenceName": "*epfid2d1_70",
      "SequenceVariant": "SK",
      "SeriesDescription": "BOLD_ep2d_3x3x3_response2",
      "SeriesNumber": 9,
      "SeriesTime": "110739.123000",
      "SliceLocation": 87.149265672013,
      "SliceThickness": 3.0,
      "SmallestImagePixelValue": 0,
      "SoftwareVersions": "syngo MR E11",
      "SpacingBetweenSlices": 3.0000000464884,
      "SpecificCharacterSet": "ISO_IR 100",
      "StudyID": "1",
      "StudyTime": "102224.672000",
      "TransmitCoilName": "Body",
      "VariableFlipAngleFlag": "N",
      "WindowCenterWidthExplanation": "Algo1",
      "dBdt": 0.0},
    "slices": {}
  },
  "time": {
    "samples": {
      "AcquisitionNumber": [1, 2, 3, 4, 5, 6, 7, 8, 9, 10, 11, 12, 13, 14, 15, 16, 17, 18, 19, 20, 21, 22, 23, 24, 25, 26, 27, 28, 29, 30, 31, 32, 33, 34, 35, 36, 37, 38, 39, 40, 41, 42, 43, 44, 45, 46, 47, 48, 49, 50, 51, 52, 53, 54, 55, 56, 57, 58, 59, 60, 61, 62, 63, 64, 65, 66, 67, 68, 69, 70, 71, 72, 73, 74, 75, 76, 77, 78, 79, 80, 81, 82, 83, 84, 85, 86, 87, 88, 89, 90, 91, 92, 93, 94, 95, 96, 97, 98, 99, 100, 101, 102, 103, 104, 105, 106, 107, 108, 109, 110, 111, 112, 113, 114, 115, 116, 117, 118, 119, 120, 121, 122, 123, 124, 125, 126, 127, 128, 129, 130, 131, 132, 133, 134, 135, 136, 137, 138, 139, 140, 141, 142, 143, 144, 145, 146, 147, 148, 149, 150, 151, 152, 153, 154, 155, 156, 157, 158, 159, 160, 161, 162, 163, 164, 165, 166, 167, 168, 169, 170, 171, 172, 173, 174, 175, 176, 177, 178, 179, 180, 181, 182, 183, 184, 185, 186, 187, 188, 189, 190, 191, 192, 193, 194, 195, 196, 197, 198, 199, 200, 201, 202, 203, 204, 205, 206, 207, 208, 209, 210, 211, 212, 213, 214, 215, 216, 217, 218, 219, 220, 221, 222, 223, 224, 225, 226, 227, 228, 229, 230, 231, 232, 233, 234, 235, 236, 237, 238, 239, 240, 241, 242, 243, 244, 245, 246, 247, 248, 249, 250, 251, 252, 253, 254, 255, 256, 257, 258, 259, 260, 261, 262, 263, 264, 265, 266, 267, 268, 269, 270, 271, 272, 273, 274, 275, 276, 277, 278, 279, 280, 281, 282, 283, 284, 285, 286, 287, 288, 289, 290, 291, 292, 293, 294, 295, 296, 297, 298, 299, 300, 301, 302, 303, 304, 305, 306, 307, 308, 309, 310, 311, 312, 313, 314, 315, 316, 317, 318, 319, 320, 321, 322, 323, 324, 325, 326, 327, 328, 329, 330, 331, 332, 333, 334, 335, 336, 337, 338, 339, 340, 341],
      "AcquisitionTime": ["110719.020000", "110721.020000", "110723.020000", "110725.020000", "110727.020000", "110729.020000", "110731.020000", "110733.020000", "110735.020000", "110737.020000", "110739.020000", "110741.020000", "110743.020000", "110745.020000", "110747.020000", "110749.020000", "110751.020000", "110753.020000", "110755.020000", "110757.020000", "110759.020000", "110801.020000", "110803.020000", "110805.020000", "110807.020000", "110809.020000", "110811.020000", "110813.020000", "110815.020000", "110817.020000", "110819.020000", "110821.020000", "110823.020000", "110825.020000", "110827.020000", "110829.020000", "110831.020000", "110833.020000", "110835.020000", "110837.020000", "110839.020000", "110841.020000", "110843.020000", "110845.020000", "110847.020000", "110849.020000", "110851.020000", "110853.020000", "110855.020000", "110857.020000", "110859.020000", "110901.020000", "110903.020000", "110905.020000", "110907.020000", "110909.020000", "110911.020000", "110913.020000", "110915.020000", "110917.020000", "110919.020000", "110921.020000", "110923.020000", "110925.020000", "110927.020000", "110929.020000", "110931.020000", "110933.020000", "110935.020000", "110937.020000", "110939.020000", "110941.020000", "110943.020000", "110945.020000", "110947.020000", "110949.020000", "110951.020000", "110953.020000", "110955.020000", "110957.020000", "110959.020000", "111001.020000", "111003.020000", "111005.020000", "111007.020000", "111009.020000", "111011.020000", "111013.020000", "111015.020000", "111017.020000", "111019.020000", "111021.020000", "111023.020000", "111025.020000", "111027.020000", "111029.020000", "111031.020000", "111033.020000", "111035.020000", "111037.020000", "111039.020000", "111041.020000", "111043.020000", "111045.020000", "111047.020000", "111049.020000", "111051.020000", "111053.020000", "111055.020000", "111057.020000", "111059.020000", "111101.020000", "111103.020000", "111105.020000", "111107.020000", "111109.020000", "111111.020000", "111113.020000", "111115.020000", "111117.020000", "111119.020000", "111121.020000", "111123.020000", "111125.020000", "111127.020000", "111129.020000", "111131.020000", "111133.020000", "111135.020000", "111137.020000", "111139.020000", "111141.020000", "111143.020000", "111145.020000", "111147.020000", "111149.020000", "111151.020000", "111153.020000", "111155.020000", "111157.020000", "111159.020000", "111201.020000", "111203.020000", "111205.020000", "111207.020000", "111209.020000", "111211.020000", "111213.020000", "111215.020000", "111217.020000", "111219.020000", "111221.020000", "111223.020000", "111225.020000", "111227.020000", "111229.020000", "111231.020000", "111233.020000", "111235.020000", "111237.020000", "111239.020000", "111241.020000", "111243.020000", "111245.020000", "111247.020000", "111249.020000", "111251.020000", "111253.020000", "111255.020000", "111257.020000", "111259.020000", "111301.020000", "111303.020000", "111305.020000", "111307.020000", "111309.020000", "111311.020000", "111313.020000", "111315.020000", "111317.020000", "111319.020000", "111321.020000", "111323.020000", "111325.020000", "111327.020000", "111329.020000", "111331.020000", "111333.020000", "111335.020000", "111337.020000", "111339.020000", "111341.020000", "111343.020000", "111345.020000", "111347.020000", "111349.020000", "111351.020000", "111353.020000", "111355.020000", "111357.020000", "111359.020000", "111401.020000", "111403.020000", "111405.020000", "111407.020000", "111409.020000", "111411.020000", "111413.020000", "111415.020000", "111417.020000", "111419.020000", "111421.020000", "111423.020000", "111425.020000", "111427.020000", "111429.020000", "111431.020000", "111433.020000", "111435.020000", "111437.020000", "111439.020000", "111441.020000", "111443.020000", "111445.020000", "111447.020000", "111449.020000", "111451.020000", "111453.020000", "111455.020000", "111457.020000", "111459.020000", "111501.020000", "111503.020000", "111505.020000", "111507.020000", "111509.020000", "111511.020000", "111513.020000", "111515.020000", "111517.020000", "111519.020000", "111521.020000", "111523.020000", "111525.020000", "111527.020000", "111529.020000", "111531.020000", "111533.020000", "111535.020000", "111537.020000", "111539.020000", "111541.020000", "111543.020000", "111545.020000", "111547.020000", "111549.020000", "111551.020000", "111553.020000", "111555.020000", "111557.020000", "111559.020000", "111601.020000", "111603.020000", "111605.020000", "111607.020000", "111609.020000", "111611.020000", "111613.020000", "111615.020000", "111617.020000", "111619.020000", "111621.020000", "111623.020000", "111625.020000", "111627.020000", "111629.020000", "111631.020000", "111633.020000", "111635.020000", "111637.020000", "111639.020000", "111641.020000", "111643.020000", "111645.020000", "111647.020000", "111649.020000", "111651.020000", "111653.020000", "111655.020000", "111657.020000", "111659.020000", "111701.020000", "111703.020000", "111705.020000", "111707.020000", "111709.020000", "111711.020000", "111713.020000", "111715.020000", "111717.020000", "111719.020000", "111721.020000", "111723.020000", "111725.020000", "111727.020000", "111729.020000", "111731.020000", "111733.020000", "111735.020000", "111737.020000", "111739.020000", "111741.020000", "111743.020000", "111745.020000", "111747.020000", "111749.020000", "111751.020000", "111753.020000", "111755.020000", "111757.020000", "111759.020000", "111801.020000", "111803.020000", "111805.020000", "111807.020000", "111809.020000", "111811.020000", "111813.020000", "111815.020000", "111817.020000", "111819.020000", "111821.020000", "111823.020000", "111825.020000", "111827.020000", "111829.020000", "111831.020000", "111833.020000", "111835.020000", "111837.020000", "111839.020000"],
      "ContentTime": ["110739.126000", "110739.130000", "110739.133000", "110739.145000", "110739.147000", "110739.150000", "110739.153000", "110739.156000", "110739.158000", "110739.161000", "110819.122000", "110819.125000", "110819.127000", "110819.130000", "110819.133000", "110819.136000", "110819.154000", "110819.157000", "110819.159000", "110819.162000", "110819.165000", "110819.168000", "110819.170000", "110819.173000", "110819.176000", "110819.179000", "110819.181000", "110819.184000", "110819.187000", "110819.190000", "110859.121000", "110859.124000", "110859.126000", "110859.129000", "110859.132000", "110859.135000", "110859.137000", "110859.140000", "110859.143000", "110859.146000", "110859.149000", "110859.151000", "110859.154000", "110859.157000", "110859.160000", "110859.163000", "110859.166000", "110859.168000", "110859.171000", "110859.174000", "110939.121000", "110939.124000", "110939.126000", "110939.129000", "110939.132000", "110939.135000", "110939.137000", "110939.140000", "110939.143000", "110939.146000", "110939.149000", "110939.151000", "110939.154000", "110939.157000", "110939.160000", "110939.162000", "110939.165000", "110939.168000", "110939.171000", "110939.174000", "111019.122000", "111019.125000", "111019.127000", "111019.130000", "111019.133000", "111019.136000", "111019.138000", "111019.141000", "111019.144000", "111019.147000", "111019.150000", "111019.160000", "111019.163000", "111019.166000", "111019.169000", "111019.172000", "111019.174000", "111019.177000", "111019.180000", "111019.183000", "111059.122000", "111059.125000", "111059.127000", "111059.130000", "111059.133000", "111059.136000", "111059.138000", "111059.141000", "111059.144000", "111059.147000", "111059.150000", "111059.152000", "111059.156000", "111059.158000", "111059.161000", "111059.164000", "111059.167000", "111059.169000", "111059.172000", "111059.183000", "111139.121000", "111139.124000", "111139.126000", "111139.129000", "111139.132000", "111139.135000", "111139.137000", "111139.140000", "111139.143000", "111139.146000", "111139.149000", "111139.151000", "111139.154000", "111139.157000", "111139.160000", "111139.163000", "111139.165000", "111139.168000", "111139.171000", "111139.174000", "111219.122000", "111219.125000", "111219.127000", "111219.130000", "111219.133000", "111219.136000", "111219.139000", "111219.141000", "111219.144000", "111219.147000", "111219.150000", "111219.153000", "111219.155000", "111219.158000", "111219.161000", "111219.164000", "111219.167000", "111219.169000", "111219.172000", "111219.175000", "111259.122000", "111259.125000", "111259.128000", "111259.130000", "111259.133000", "111259.136000", "111259.139000", "111259.141000", "111259.144000", "111259.147000", "111259.150000", "111259.153000", "111259.155000", "111259.158000", "111259.161000", "111259.164000", "111259.166000", "111259.169000", "111259.172000", "111259.175000", "111339.121000", "111339.124000", "111339.126000", "111339.129000", "111339.132000", "111339.135000", "111339.138000", "111339.141000", "111339.143000", "111339.146000", "111339.149000", "111339.152000", "111339.154000", "111339.157000", "111339.160000", "111339.163000", "111339.165000", "111339.168000", "111339.171000", "111339.174000", "111419.121000", "111419.124000", "111419.127000", "111419.129000", "111419.132000", "111419.135000", "111419.138000", "111419.140000", "111419.143000", "111419.146000", "111419.149000", "111419.151000", "111419.154000", "111419.157000", "111419.160000", "111419.163000", "111419.165000", "111419.168000", "111419.171000", "111419.174000", "111459.122000", "111459.125000", "111459.128000", "111459.130000", "111459.133000", "111459.136000", "111459.139000", "111459.141000", "111459.144000", "111459.147000", "111459.150000", "111459.152000", "111459.155000", "111459.158000", "111459.161000", "111459.163000", "111459.166000", "111459.169000", "111459.172000", "111459.175000", "111539.121000", "111539.124000", "111539.126000", "111539.129000", "111539.132000", "111539.135000", "111539.137000", "111539.140000", "111539.143000", "111539.146000", "111539.149000", "111539.152000", "111539.155000", "111539.157000", "111539.160000", "111539.171000", "111539.174000", "111539.176000", "111539.179000", "111539.182000", "111619.121000", "111619.124000", "111619.126000", "111619.129000", "111619.132000", "111619.144000", "111619.146000", "111619.149000", "111619.152000", "111619.155000", "111619.157000", "111619.160000", "111619.163000", "111619.166000", "111619.168000", "111619.171000", "111619.174000", "111619.177000", "111619.179000", "111619.182000", "111639.121000", "111639.124000", "111639.127000", "111639.130000", "111639.132000", "111639.135000", "111639.138000", "111639.141000", "111639.143000", "111639.146000", "111719.122000", "111719.125000", "111719.128000", "111719.130000", "111719.133000", "111719.136000", "111719.139000", "111719.141000", "111719.144000", "111719.147000", "111719.150000", "111719.153000", "111719.156000", "111719.159000", "111719.161000", "111719.164000", "111719.167000", "111719.170000", "111719.173000", "111719.175000", "111759.121000", "111759.124000", "111759.126000", "111759.129000", "111759.132000", "111759.135000", "111759.138000", "111759.140000", "111759.143000", "111759.146000", "111759.149000", "111759.152000", "111759.154000", "111759.157000", "111759.160000", "111759.163000", "111759.165000", "111759.168000", "111759.171000", "111759.174000", "111839.121000", "111839.124000", "111839.127000", "111839.129000", "111839.132000", "111839.135000", "111839.138000", "111839.140000", "111839.143000", "111839.146000", "111839.149000", "111839.152000", "111839.154000", "111839.157000", "111839.160000", "111839.163000", "111839.166000", "111839.168000", "111839.171000", "111839.174000", "111840.281000"],
      "DataSetTrailingPadding": [
        "\u0000\u0000\u0000\u0000\u0000\u0000\u0000\u0000\u0000\u0000\u0000\u0000\u0000\u0000\u0000\u0000\u0000\u0000\u0000\u0000\u0000\u0000\u0000\u0000\u0000\u0000\u0000\u0000\u0000\u0000\u0000\u0000\u0000\u0000\u0000\u0000\u0000\u0000\u0000\u0000\u0000\u0000\u0000\u0000\u0000\u0000\u0000\u0000\u0000\u0000",
        "\u0000\u0000\u0000\u0000\u0000\u0000\u0000\u0000\u0000\u0000\u0000\u0000\u0000\u0000\u0000\u0000\u0000\u0000\u0000\u0000\u0000\u0000\u0000\u0000\u0000\u0000\u0000\u0000\u0000\u0000\u0000\u0000\u0000\u0000\u0000\u0000\u0000\u0000\u0000\u0000\u0000\u0000\u0000\u0000\u0000\u0000\u0000\u0000\u0000\u0000",
        "\u0000\u0000\u0000\u0000\u0000\u0000\u0000\u0000\u0000\u0000\u0000\u0000\u0000\u0000\u0000\u0000\u0000\u0000\u0000\u0000\u0000\u0000\u0000\u0000\u0000\u0000\u0000\u0000\u0000\u0000\u0000\u0000\u0000\u0000\u0000\u0000\u0000\u0000\u0000\u0000\u0000\u0000\u0000\u0000\u0000\u0000\u0000\u0000\u0000\u0000",
        "\u0000\u0000\u0000\u0000\u0000\u0000\u0000\u0000\u0000\u0000\u0000\u0000\u0000\u0000\u0000\u0000\u0000\u0000\u0000\u0000\u0000\u0000\u0000\u0000\u0000\u0000\u0000\u0000\u0000\u0000\u0000\u0000\u0000\u0000\u0000\u0000\u0000\u0000\u0000\u0000\u0000\u0000\u0000\u0000\u0000\u0000\u0000\u0000\u0000\u0000",
        "\u0000\u0000\u0000\u0000\u0000\u0000\u0000\u0000\u0000\u0000\u0000\u0000\u0000\u0000\u0000\u0000\u0000\u0000\u0000\u0000\u0000\u0000\u0000\u0000\u0000\u0000\u0000\u0000\u0000\u0000\u0000\u0000\u0000\u0000\u0000\u0000\u0000\u0000\u0000\u0000\u0000\u0000\u0000\u0000\u0000\u0000\u0000\u0000",
        "\u0000\u0000\u0000\u0000\u0000\u0000\u0000\u0000\u0000\u0000\u0000\u0000\u0000\u0000\u0000\u0000\u0000\u0000\u0000\u0000\u0000\u0000\u0000\u0000\u0000\u0000\u0000\u0000\u0000\u0000\u0000\u0000\u0000\u0000\u0000\u0000\u0000\u0000\u0000\u0000\u0000\u0000\u0000\u0000\u0000\u0000\u0000\u0000",
        "\u0000\u0000\u0000\u0000\u0000\u0000\u0000\u0000\u0000\u0000\u0000\u0000\u0000\u0000\u0000\u0000\u0000\u0000\u0000\u0000\u0000\u0000\u0000\u0000\u0000\u0000\u0000\u0000\u0000\u0000\u0000\u0000\u0000\u0000\u0000\u0000\u0000\u0000\u0000\u0000\u0000\u0000\u0000\u0000\u0000\u0000\u0000\u0000",
        "\u0000\u0000\u0000\u0000\u0000\u0000\u0000\u0000\u0000\u0000\u0000\u0000\u0000\u0000\u0000\u0000\u0000\u0000\u0000\u0000\u0000\u0000\u0000\u0000\u0000\u0000\u0000\u0000\u0000\u0000\u0000\u0000\u0000\u0000\u0000\u0000\u0000\u0000\u0000\u0000\u0000\u0000\u0000\u0000\u0000\u0000\u0000\u0000",
        "\u0000\u0000\u0000\u0000\u0000\u0000\u0000\u0000\u0000\u0000\u0000\u0000\u0000\u0000\u0000\u0000\u0000\u0000\u0000\u0000\u0000\u0000\u0000\u0000\u0000\u0000\u0000\u0000\u0000\u0000\u0000\u0000\u0000\u0000\u0000\u0000\u0000\u0000\u0000\u0000\u0000\u0000\u0000\u0000\u0000\u0000\u0000\u0000",
        "\u0000\u0000\u0000\u0000\u0000\u0000\u0000\u0000\u0000\u0000\u0000\u0000\u0000\u0000\u0000\u0000\u0000\u0000\u0000\u0000\u0000\u0000\u0000\u0000\u0000\u0000\u0000\u0000\u0000\u0000\u0000\u0000\u0000\u0000\u0000\u0000\u0000\u0000\u0000\u0000\u0000\u0000\u0000\u0000\u0000\u0000\u0000\u0000",
        "\u0000\u0000\u0000\u0000\u0000\u0000\u0000\u0000\u0000\u0000\u0000\u0000\u0000\u0000\u0000\u0000\u0000\u0000\u0000\u0000\u0000\u0000\u0000\u0000\u0000\u0000\u0000\u0000\u0000\u0000\u0000\u0000\u0000\u0000\u0000\u0000\u0000\u0000\u0000\u0000\u0000\u0000\u0000\u0000\u0000\u0000\u0000\u0000",
        "\u0000\u0000\u0000\u0000\u0000\u0000\u0000\u0000\u0000\u0000\u0000\u0000\u0000\u0000\u0000\u0000\u0000\u0000\u0000\u0000\u0000\u0000\u0000\u0000\u0000\u0000\u0000\u0000\u0000\u0000\u0000\u0000\u0000\u0000\u0000\u0000\u0000\u0000\u0000\u0000\u0000\u0000\u0000\u0000\u0000\u0000\u0000\u0000",
        "\u0000\u0000\u0000\u0000\u0000\u0000\u0000\u0000\u0000\u0000\u0000\u0000\u0000\u0000\u0000\u0000\u0000\u0000\u0000\u0000\u0000\u0000\u0000\u0000\u0000\u0000\u0000\u0000\u0000\u0000\u0000\u0000\u0000\u0000\u0000\u0000\u0000\u0000\u0000\u0000\u0000\u0000\u0000\u0000\u0000\u0000\u0000\u0000",
        "\u0000\u0000\u0000\u0000\u0000\u0000\u0000\u0000\u0000\u0000\u0000\u0000\u0000\u0000\u0000\u0000\u0000\u0000\u0000\u0000\u0000\u0000\u0000\u0000\u0000\u0000\u0000\u0000\u0000\u0000\u0000\u0000\u0000\u0000\u0000\u0000\u0000\u0000\u0000\u0000\u0000\u0000\u0000\u0000\u0000\u0000\u0000\u0000",
        "\u0000\u0000\u0000\u0000\u0000\u0000\u0000\u0000\u0000\u0000\u0000\u0000\u0000\u0000\u0000\u0000\u0000\u0000\u0000\u0000\u0000\u0000\u0000\u0000\u0000\u0000\u0000\u0000\u0000\u0000\u0000\u0000\u0000\u0000\u0000\u0000\u0000\u0000\u0000\u0000\u0000\u0000\u0000\u0000\u0000\u0000\u0000\u0000",
        "\u0000\u0000\u0000\u0000\u0000\u0000\u0000\u0000\u0000\u0000\u0000\u0000\u0000\u0000\u0000\u0000\u0000\u0000\u0000\u0000\u0000\u0000\u0000\u0000\u0000\u0000\u0000\u0000\u0000\u0000\u0000\u0000\u0000\u0000\u0000\u0000\u0000\u0000\u0000\u0000\u0000\u0000\u0000\u0000\u0000\u0000\u0000\u0000",
        "\u0000\u0000\u0000\u0000\u0000\u0000\u0000\u0000\u0000\u0000\u0000\u0000\u0000\u0000\u0000\u0000\u0000\u0000\u0000\u0000\u0000\u0000\u0000\u0000\u0000\u0000\u0000\u0000\u0000\u0000\u0000\u0000\u0000\u0000\u0000\u0000\u0000\u0000\u0000\u0000\u0000\u0000\u0000\u0000\u0000\u0000\u0000\u0000",
        "\u0000\u0000\u0000\u0000\u0000\u0000\u0000\u0000\u0000\u0000\u0000\u0000\u0000\u0000\u0000\u0000\u0000\u0000\u0000\u0000\u0000\u0000\u0000\u0000\u0000\u0000\u0000\u0000\u0000\u0000\u0000\u0000\u0000\u0000\u0000\u0000\u0000\u0000\u0000\u0000\u0000\u0000\u0000\u0000\u0000\u0000",
        "\u0000\u0000\u0000\u0000\u0000\u0000\u0000\u0000\u0000\u0000\u0000\u0000\u0000\u0000\u0000\u0000\u0000\u0000\u0000\u0000\u0000\u0000\u0000\u0000\u0000\u0000\u0000\u0000\u0000\u0000\u0000\u0000\u0000\u0000\u0000\u0000\u0000\u0000\u0000\u0000\u0000\u0000\u0000\u0000\u0000\u0000",
        "\u0000\u0000\u0000\u0000\u0000\u0000\u0000\u0000\u0000\u0000\u0000\u0000\u0000\u0000\u0000\u0000\u0000\u0000\u0000\u0000\u0000\u0000\u0000\u0000\u0000\u0000\u0000\u0000\u0000\u0000\u0000\u0000\u0000\u0000\u0000\u0000\u0000\u0000\u0000\u0000\u0000\u0000\u0000\u0000\u0000\u0000\u0000\u0000",
        "\u0000\u0000\u0000\u0000\u0000\u0000\u0000\u0000\u0000\u0000\u0000\u0000\u0000\u0000\u0000\u0000\u0000\u0000\u0000\u0000\u0000\u0000\u0000\u0000\u0000\u0000\u0000\u0000\u0000\u0000\u0000\u0000\u0000\u0000\u0000\u0000\u0000\u0000\u0000\u0000\u0000\u0000\u0000\u0000\u0000\u0000",
        "\u0000\u0000\u0000\u0000\u0000\u0000\u0000\u0000\u0000\u0000\u0000\u0000\u0000\u0000\u0000\u0000\u0000\u0000\u0000\u0000\u0000\u0000\u0000\u0000\u0000\u0000\u0000\u0000\u0000\u0000\u0000\u0000\u0000\u0000\u0000\u0000\u0000\u0000\u0000\u0000\u0000\u0000\u0000\u0000\u0000\u0000",
        "\u0000\u0000\u0000\u0000\u0000\u0000\u0000\u0000\u0000\u0000\u0000\u0000\u0000\u0000\u0000\u0000\u0000\u0000\u0000\u0000\u0000\u0000\u0000\u0000\u0000\u0000\u0000\u0000\u0000\u0000\u0000\u0000\u0000\u0000\u0000\u0000\u0000\u0000\u0000\u0000\u0000\u0000\u0000\u0000\u0000\u0000\u0000\u0000",
        "\u0000\u0000\u0000\u0000\u0000\u0000\u0000\u0000\u0000\u0000\u0000\u0000\u0000\u0000\u0000\u0000\u0000\u0000\u0000\u0000\u0000\u0000\u0000\u0000\u0000\u0000\u0000\u0000\u0000\u0000\u0000\u0000\u0000\u0000\u0000\u0000\u0000\u0000\u0000\u0000\u0000\u0000\u0000\u0000\u0000\u0000",
        "\u0000\u0000\u0000\u0000\u0000\u0000\u0000\u0000\u0000\u0000\u0000\u0000\u0000\u0000\u0000\u0000\u0000\u0000\u0000\u0000\u0000\u0000\u0000\u0000\u0000\u0000\u0000\u0000\u0000\u0000\u0000\u0000\u0000\u0000\u0000\u0000\u0000\u0000\u0000\u0000\u0000\u0000\u0000\u0000\u0000\u0000",
        "\u0000\u0000\u0000\u0000\u0000\u0000\u0000\u0000\u0000\u0000\u0000\u0000\u0000\u0000\u0000\u0000\u0000\u0000\u0000\u0000\u0000\u0000\u0000\u0000\u0000\u0000\u0000\u0000\u0000\u0000\u0000\u0000\u0000\u0000\u0000\u0000\u0000\u0000\u0000\u0000\u0000\u0000\u0000\u0000\u0000\u0000",
        "\u0000\u0000\u0000\u0000\u0000\u0000\u0000\u0000\u0000\u0000\u0000\u0000\u0000\u0000\u0000\u0000\u0000\u0000\u0000\u0000\u0000\u0000\u0000\u0000\u0000\u0000\u0000\u0000\u0000\u0000\u0000\u0000\u0000\u0000\u0000\u0000\u0000\u0000\u0000\u0000\u0000\u0000\u0000\u0000\u0000\u0000",
        "\u0000\u0000\u0000\u0000\u0000\u0000\u0000\u0000\u0000\u0000\u0000\u0000\u0000\u0000\u0000\u0000\u0000\u0000\u0000\u0000\u0000\u0000\u0000\u0000\u0000\u0000\u0000\u0000\u0000\u0000\u0000\u0000\u0000\u0000\u0000\u0000\u0000\u0000\u0000\u0000\u0000\u0000\u0000\u0000\u0000\u0000",
        "\u0000\u0000\u0000\u0000\u0000\u0000\u0000\u0000\u0000\u0000\u0000\u0000\u0000\u0000\u0000\u0000\u0000\u0000\u0000\u0000\u0000\u0000\u0000\u0000\u0000\u0000\u0000\u0000\u0000\u0000\u0000\u0000\u0000\u0000\u0000\u0000\u0000\u0000\u0000\u0000\u0000\u0000\u0000\u0000\u0000\u0000",
        "\u0000\u0000\u0000\u0000\u0000\u0000\u0000\u0000\u0000\u0000\u0000\u0000\u0000\u0000\u0000\u0000\u0000\u0000\u0000\u0000\u0000\u0000\u0000\u0000\u0000\u0000\u0000\u0000\u0000\u0000\u0000\u0000\u0000\u0000\u0000\u0000\u0000\u0000\u0000\u0000\u0000\u0000\u0000\u0000\u0000\u0000",
        "\u0000\u0000\u0000\u0000\u0000\u0000\u0000\u0000\u0000\u0000\u0000\u0000\u0000\u0000\u0000\u0000\u0000\u0000\u0000\u0000\u0000\u0000\u0000\u0000\u0000\u0000\u0000\u0000\u0000\u0000\u0000\u0000\u0000\u0000\u0000\u0000\u0000\u0000\u0000\u0000\u0000\u0000\u0000\u0000\u0000\u0000",
        "\u0000\u0000\u0000\u0000\u0000\u0000\u0000\u0000\u0000\u0000\u0000\u0000\u0000\u0000\u0000\u0000\u0000\u0000\u0000\u0000\u0000\u0000\u0000\u0000\u0000\u0000\u0000\u0000\u0000\u0000\u0000\u0000\u0000\u0000\u0000\u0000\u0000\u0000\u0000\u0000\u0000\u0000\u0000\u0000\u0000\u0000",
        "\u0000\u0000\u0000\u0000\u0000\u0000\u0000\u0000\u0000\u0000\u0000\u0000\u0000\u0000\u0000\u0000\u0000\u0000\u0000\u0000\u0000\u0000\u0000\u0000\u0000\u0000\u0000\u0000\u0000\u0000\u0000\u0000\u0000\u0000\u0000\u0000\u0000\u0000\u0000\u0000\u0000\u0000\u0000\u0000\u0000\u0000",
        "\u0000\u0000\u0000\u0000\u0000\u0000\u0000\u0000\u0000\u0000\u0000\u0000\u0000\u0000\u0000\u0000\u0000\u0000\u0000\u0000\u0000\u0000\u0000\u0000\u0000\u0000\u0000\u0000\u0000\u0000\u0000\u0000\u0000\u0000\u0000\u0000\u0000\u0000\u0000\u0000\u0000\u0000\u0000\u0000\u0000\u0000",
        "\u0000\u0000\u0000\u0000\u0000\u0000\u0000\u0000\u0000\u0000\u0000\u0000\u0000\u0000\u0000\u0000\u0000\u0000\u0000\u0000\u0000\u0000\u0000\u0000\u0000\u0000\u0000\u0000\u0000\u0000\u0000\u0000\u0000\u0000\u0000\u0000\u0000\u0000\u0000\u0000\u0000\u0000\u0000\u0000\u0000\u0000",
        "\u0000\u0000\u0000\u0000\u0000\u0000\u0000\u0000\u0000\u0000\u0000\u0000\u0000\u0000\u0000\u0000\u0000\u0000\u0000\u0000\u0000\u0000\u0000\u0000\u0000\u0000\u0000\u0000\u0000\u0000\u0000\u0000\u0000\u0000\u0000\u0000\u0000\u0000\u0000\u0000\u0000\u0000\u0000\u0000\u0000\u0000",
        "\u0000\u0000\u0000\u0000\u0000\u0000\u0000\u0000\u0000\u0000\u0000\u0000\u0000\u0000\u0000\u0000\u0000\u0000\u0000\u0000\u0000\u0000\u0000\u0000\u0000\u0000\u0000\u0000\u0000\u0000\u0000\u0000\u0000\u0000\u0000\u0000\u0000\u0000\u0000\u0000\u0000\u0000\u0000\u0000\u0000\u0000",
        "\u0000\u0000\u0000\u0000\u0000\u0000\u0000\u0000\u0000\u0000\u0000\u0000\u0000\u0000\u0000\u0000\u0000\u0000\u0000\u0000\u0000\u0000\u0000\u0000\u0000\u0000\u0000\u0000\u0000\u0000\u0000\u0000\u0000\u0000\u0000\u0000\u0000\u0000\u0000\u0000\u0000\u0000\u0000\u0000\u0000\u0000",
