{
  "AcquisitionMatrixPE": 70,
  "AcquisitionNumber": 1,
  "AcquisitionTime": "15:00:49.192500",
  "BandwidthPerPixelPhaseEncode": 51.948,
  "BaseResolution": 70,
  "BodyPartExamined": "HEAD",
  "CoilCombinationMethod": "Sum of Squares",
  "ConsistencyInfo": "N4_VE11C_LATEST_20160120",
  "ConversionSoftware": "dcm2niix",
  "ConversionSoftwareVersion": "v1.0.20220720",
  "DerivedVendorReportedEchoSpacing": 0.000550001,
  "DeviceSerialNumber": "66061",
  "DwellTime": 3.3e-06,
  "EchoTime": 0.022,
  "EchoTrainLength": 35,
  "EffectiveEchoSpacing": 0.000275,
  "FlipAngle": 90,
  "HeudiconvVersion": "1.1.1",
  "ImageOrientationPatientDICOM": [0.999998, 0.000885319, -0.00191101, -0.00122174, 0.982935, -0.183949],
  "ImageOrientationText": "Tra>Cor(-10.6)>Sag(-0.1)",
  "ImageType": [
    "ORIGINAL",
    "PRIMARY",
    "M",
    "ND",
    "NORM",
    "MOSAIC"
],
  "ImagingFrequency": 123.254,
  "InPlanePhaseEncodingDirectionDICOM": "COL",
  "InstitutionAddress": "Street StreetNo,City/1c4204/,District,KR,ZIP",
  "InstitutionName": "SKKU",
  "InstitutionalDepartmentName": "Department",
  "MRAcquisitionType": "2D",
  "MagneticFieldStrength": 3,
  "Manufacturer": "Siemens",
  "ManufacturersModelName": "Prisma",
  "MatrixCoilMode": "GRAPPA",
  "Modality": "MR",
  "NonlinearGradientCorrection": false,
  "ParallelReductionFactorInPlane": 2,
  "PartialFourier": 1,
  "PatientPosition": "HFS",
  "PercentPhaseFOV": 100,
  "PercentSampling": 100,
  "PhaseEncodingDirection": "j-",
  "PhaseEncodingSteps": 70,
  "PhaseResolution": 1,
  "PixelBandwidth": 2165,
  "ProcedureStepDescription": "Head^PI:Others",
  "ProtocolName": "BOLD_ep2d_3x3x3_response1",
  "PulseSequenceDetails": "%SiemensSeq%\\ep2d_pace",
  "ReceiveCoilActiveElements": "HC1-7",
  "ReceiveCoilName": "HeadNeck_64",
  "ReconMatrixPE": 70,
  "RefLinesPE": 24,
  "RepetitionTime": 2,
  "SAR": 0.127375,
  "ScanOptions": "FS",
  "ScanningSequence": "EP",
  "SequenceName": "*epfid2d1_70",
  "SequenceVariant": "SK",
  "SeriesDescription": "BOLD_ep2d_3x3x3_response1",
  "SeriesNumber": 8,
  "ShimSetting": [5039, 3740, 4435, 420, -53, -82, -42, 95],
  "SliceThickness": 3,
  "SliceTiming": [0.99, 0, 1.0375, 0.0475, 1.085, 0.095, 1.1325, 0.1425, 1.18, 0.19, 1.225, 0.235, 1.2725, 0.2825, 1.32, 0.33, 1.3675, 0.3775, 1.415, 0.425, 1.4625, 0.4725, 1.51, 0.52, 1.555, 0.565, 1.6025, 0.6125, 1.65, 0.66, 1.6975, 0.7075, 1.745, 0.755, 1.7925, 0.8025, 1.84, 0.85, 1.885, 0.895, 1.9325, 0.9425],
  "SoftwareVersions": "syngo MR E11",
  "SpacingBetweenSlices": 3,
  "StationName": "AWP66061",
  "TaskName": "response",
  "TotalReadoutTime": 0.018975,
  "TxRefAmp": 258.686,
  "dcmmeta_affine": [
    [-2.999993324279785, -0.0036652260459959507, -0.005146622192114592, 103.58113861083984],
    [-0.0026559566613286734, 2.9488048553466797, -0.5518540143966675, -85.83554077148438],
    [-0.005733018275350332, 0.5518482327461243, 2.9488015174865723, -67.48303985595703],
    [0.0, 0.0, 0.0, 1.0]
],
  "dcmmeta_reorient_transform": [
    [0.0, -1.0, 0.0, 69.0],
    [1.0, 0.0, 0.0, 0.0],
    [0.0, 0.0, -1.0, 41.0],
    [0.0, 0.0, 0.0, 1.0]
],
  "dcmmeta_shape": [70, 70, 42, 341],
  "dcmmeta_slice_dim": 2,
  "dcmmeta_version": 0.6,
  "global": {
    "const": {
      "AcquisitionMatrix": [70, 0, 0, 70],
      "AngioFlag": "N",
      "BitsAllocated": 16,
      "BitsStored": 12,
      "BodyPartExamined": "HEAD",
      "Columns": 490,
      "EchoNumbers": 1,
      "EchoTime": 22.0,
      "EchoTrainLength": 35,
      "FlipAngle": 90.0,
      "HighBit": 11,
      "ImageOrientationPatient": [0.99999778213068, 0.00088531885271, -0.0019110060812, -0.0012217420137, 0.9829349511144, -0.1839494202877],
      "ImagePositionPatient": [-732.34613311832, -714.81274862266, 208.58742436744],
      "ImageType": [
        "ORIGINAL",
        "PRIMARY",
        "M",
        "ND",
        "NORM",
        "MOSAIC"
],
      "ImagedNucleus": "1H",
      "ImagingFrequency": 123.254449,
      "InPlanePhaseEncodingDirection": "COL",
      "MRAcquisitionType": "2D",
      "MagneticFieldStrength": 3.0,
      "Manufacturer": "SIEMENS",
      "ManufacturerModelName": "Prisma",
      "Modality": "MR",
      "NumberOfAverages": 1.0,
      "NumberOfPhaseEncodingSteps": 70,
      "PercentPhaseFieldOfView": 100.0,
      "PercentSampling": 100.0,
      "PerformedProcedureStepStartTime": "141324.871000",
      "PhotometricInterpretation": "MONOCHROME2",
      "PixelBandwidth": 2165.0,
      "PixelRepresentation": 0,
      "PixelSpacing": [3.0, 3.0],
      "ProtocolName": "BOLD_ep2d_3x3x3_response1",
      "RepetitionTime": 2000.0,
      "Rows": 490,
      "SAR": 0.12737539398471,
      "SamplesPerPixel": 1,
      "ScanOptions": "FS",
      "ScanningSequence": "EP",
      "SequenceName": "*epfid2d1_70",
      "SequenceVariant": "SK",
      "SeriesDescription": "BOLD_ep2d_3x3x3_response1",
      "SeriesNumber": 8,
      "SeriesTime": "150108.598000",
      "SliceLocation": 72.280502996695,
      "SliceThickness": 3.0,
      "SmallestImagePixelValue": 0,
      "SoftwareVersions": "syngo MR E11",
      "SpacingBetweenSlices": 2.9999999984844,
      "SpecificCharacterSet": "ISO_IR 100",
      "StudyID": "1",
      "StudyTime": "141324.812000",
      "TransmitCoilName": "Body",
      "VariableFlipAngleFlag": "N",
      "WindowCenterWidthExplanation": "Algo1",
      "dBdt": 0.0},
    "slices": {}
  },
  "time": {
    "samples": {
      "AcquisitionNumber": [1, 2, 3, 4, 5, 6, 7, 8, 9, 10, 11, 12, 13, 14, 15, 16, 17, 18, 19, 20, 21, 22, 23, 24, 25, 26, 27, 28, 29, 30, 31, 32, 33, 34, 35, 36, 37, 38, 39, 40, 41, 42, 43, 44, 45, 46, 47, 48, 49, 50, 51, 52, 53, 54, 55, 56, 57, 58, 59, 60, 61, 62, 63, 64, 65, 66, 67, 68, 69, 70, 71, 72, 73, 74, 75, 76, 77, 78, 79, 80, 81, 82, 83, 84, 85, 86, 87, 88, 89, 90, 91, 92, 93, 94, 95, 96, 97, 98, 99, 100, 101, 102, 103, 104, 105, 106, 107, 108, 109, 110, 111, 112, 113, 114, 115, 116, 117, 118, 119, 120, 121, 122, 123, 124, 125, 126, 127, 128, 129, 130, 131, 132, 133, 134, 135, 136, 137, 138, 139, 140, 141, 142, 143, 144, 145, 146, 147, 148, 149, 150, 151, 152, 153, 154, 155, 156, 157, 158, 159, 160, 161, 162, 163, 164, 165, 166, 167, 168, 169, 170, 171, 172, 173, 174, 175, 176, 177, 178, 179, 180, 181, 182, 183, 184, 185, 186, 187, 188, 189, 190, 191, 192, 193, 194, 195, 196, 197, 198, 199, 200, 201, 202, 203, 204, 205, 206, 207, 208, 209, 210, 211, 212, 213, 214, 215, 216, 217, 218, 219, 220, 221, 222, 223, 224, 225, 226, 227, 228, 229, 230, 231, 232, 233, 234, 235, 236, 237, 238, 239, 240, 241, 242, 243, 244, 245, 246, 247, 248, 249, 250, 251, 252, 253, 254, 255, 256, 257, 258, 259, 260, 261, 262, 263, 264, 265, 266, 267, 268, 269, 270, 271, 272, 273, 274, 275, 276, 277, 278, 279, 280, 281, 282, 283, 284, 285, 286, 287, 288, 289, 290, 291, 292, 293, 294, 295, 296, 297, 298, 299, 300, 301, 302, 303, 304, 305, 306, 307, 308, 309, 310, 311, 312, 313, 314, 315, 316, 317, 318, 319, 320, 321, 322, 323, 324, 325, 326, 327, 328, 329, 330, 331, 332, 333, 334, 335, 336, 337, 338, 339, 340, 341],
      "AcquisitionTime": ["150049.192500", "150051.192500", "150053.192500", "150055.192500", "150057.192500", "150059.192500", "150101.192500", "150103.192500", "150105.192500", "150107.192500", "150109.192500", "150111.192500", "150113.192500", "150115.192500", "150117.192500", "150119.192500", "150121.192500", "150123.192500", "150125.192500", "150127.192500", "150129.192500", "150131.192500", "150133.192500", "150135.192500", "150137.192500", "150139.192500", "150141.192500", "150143.192500", "150145.192500", "150147.192500", "150149.192500", "150151.192500", "150153.192500", "150155.192500", "150157.192500", "150159.192500", "150201.192500", "150203.192500", "150205.192500", "150207.192500", "150209.192500", "150211.192500", "150213.192500", "150215.192500", "150217.192500", "150219.192500", "150221.192500", "150223.192500", "150225.192500", "150227.192500", "150229.192500", "150231.192500", "150233.192500", "150235.192500", "150237.192500", "150239.192500", "150241.192500", "150243.192500", "150245.192500", "150247.192500", "150249.192500", "150251.192500", "150253.192500", "150255.192500", "150257.192500", "150259.192500", "150301.192500", "150303.192500", "150305.192500", "150307.192500", "150309.192500", "150311.192500", "150313.192500", "150315.192500", "150317.192500", "150319.192500", "150321.192500", "150323.192500", "150325.192500", "150327.192500", "150329.192500", "150331.192500", "150333.192500", "150335.192500", "150337.192500", "150339.192500", "150341.192500", "150343.192500", "150345.192500", "150347.192500", "150349.192500", "150351.192500", "150353.192500", "150355.192500", "150357.192500", "150359.192500", "150401.192500", "150403.192500", "150405.192500", "150407.192500", "150409.192500", "150411.192500", "150413.192500", "150415.192500", "150417.192500", "150419.192500", "150421.192500", "150423.192500", "150425.192500", "150427.192500", "150429.192500", "150431.192500", "150433.192500", "150435.192500", "150437.192500", "150439.192500", "150441.192500", "150443.192500", "150445.192500", "150447.192500", "150449.192500", "150451.192500", "150453.192500", "150455.192500", "150457.192500", "150459.192500", "150501.192500", "150503.192500", "150505.192500", "150507.192500", "150509.192500", "150511.192500", "150513.192500", "150515.192500", "150517.192500", "150519.192500", "150521.192500", "150523.192500", "150525.192500", "150527.192500", "150529.192500", "150531.192500", "150533.192500", "150535.192500", "150537.192500", "150539.192500", "150541.192500", "150543.192500", "150545.192500", "150547.192500", "150549.192500", "150551.192500", "150553.192500", "150555.192500", "150557.192500", "150559.192500", "150601.192500", "150603.192500", "150605.192500", "150607.192500", "150609.192500", "150611.192500", "150613.192500", "150615.192500", "150617.192500", "150619.192500", "150621.192500", "150623.192500", "150625.192500", "150627.192500", "150629.192500", "150631.192500", "150633.192500", "150635.192500", "150637.192500", "150639.192500", "150641.192500", "150643.192500", "150645.192500", "150647.192500", "150649.192500", "150651.192500", "150653.192500", "150655.192500", "150657.192500", "150659.192500", "150701.192500", "150703.192500", "150705.192500", "150707.192500", "150709.192500", "150711.192500", "150713.192500", "150715.192500", "150717.192500", "150719.192500", "150721.192500", "150723.192500", "150725.192500", "150727.192500", "150729.192500", "150731.192500", "150733.192500", "150735.192500", "150737.192500", "150739.192500", "150741.192500", "150743.192500", "150745.192500", "150747.192500", "150749.192500", "150751.192500", "150753.192500", "150755.192500", "150757.192500", "150759.192500", "150801.192500", "150803.192500", "150805.192500", "150807.192500", "150809.192500", "150811.192500", "150813.192500", "150815.192500", "150817.192500", "150819.192500", "150821.192500", "150823.192500", "150825.192500", "150827.192500", "150829.192500", "150831.192500", "150833.192500", "150835.192500", "150837.192500", "150839.192500", "150841.192500", "150843.192500", "150845.192500", "150847.192500", "150849.192500", "150851.192500", "150853.192500", "150855.192500", "150857.192500", "150859.192500", "150901.192500", "150903.192500", "150905.192500", "150907.192500", "150909.192500", "150911.192500", "150913.192500", "150915.192500", "150917.192500", "150919.192500", "150921.192500", "150923.192500", "150925.192500", "150927.192500", "150929.192500", "150931.192500", "150933.192500", "150935.192500", "150937.192500", "150939.192500", "150941.192500", "150943.192500", "150945.192500", "150947.192500", "150949.192500", "150951.192500", "150953.192500", "150955.192500", "150957.192500", "150959.192500", "151001.192500", "151003.192500", "151005.192500", "151007.192500", "151009.192500", "151011.192500", "151013.192500", "151015.192500", "151017.192500", "151019.192500", "151021.192500", "151023.192500", "151025.192500", "151027.192500", "151029.192500", "151031.192500", "151033.192500", "151035.192500", "151037.192500", "151039.192500", "151041.192500", "151043.192500", "151045.192500", "151047.192500", "151049.192500", "151051.192500", "151053.192500", "151055.192500", "151057.192500", "151059.192500", "151101.192500", "151103.192500", "151105.192500", "151107.192500", "151109.192500", "151111.192500", "151113.192500", "151115.192500", "151117.192500", "151119.192500", "151121.192500", "151123.192500", "151125.192500", "151127.192500", "151129.192500", "151131.192500", "151133.192500", "151135.192500", "151137.192500", "151139.192500", "151141.192500", "151143.192500", "151145.192500", "151147.192500", "151149.192500", "151151.192500", "151153.192500", "151155.192500", "151157.192500", "151159.192500", "151201.192500", "151203.192500", "151205.192500", "151207.192500", "151209.192500"],
      "ContentTime": ["150108.601000", "150108.605000", "150108.608000", "150108.610000", "150108.613000", "150108.616000", "150108.626000", "150108.629000", "150108.632000", "150148.596000", "150148.598000", "150148.601000", "150148.604000", "150148.607000", "150148.609000", "150148.612000", "150148.615000", "150148.618000", "150148.620000", "150148.623000", "150148.626000", "150148.629000", "150148.631000", "150148.634000", "150148.637000", "150148.640000", "150148.642000", "150148.645000", "150148.648000", "150228.596000", "150228.598000", "150228.601000", "150228.604000", "150228.607000", "150228.610000", "150228.612000", "150228.615000", "150228.618000", "150228.628000", "150228.631000", "150228.634000", "150228.636000", "150228.639000", "150228.642000", "150228.644000", "150228.647000", "150228.650000", "150228.652000", "150228.655000", "150308.597000", "150308.599000", "150308.602000", "150308.605000", "150308.608000", "150308.611000", "150308.613000", "150308.616000", "150308.619000", "150308.621000", "150308.624000", "150308.627000", "150308.629000", "150308.632000", "150308.635000", "150308.645000", "150308.648000", "150308.651000", "150308.654000", "150308.656000", "150348.597000", "150348.600000", "150348.603000", "150348.605000", "150348.608000", "150348.611000", "150348.614000", "150348.616000", "150348.619000", "150348.622000", "150348.624000", "150348.627000", "150348.639000", "150348.641000", "150348.644000", "150348.647000", "150348.650000", "150348.653000", "150348.655000", "150348.658000", "150428.596000", "150428.599000", "150428.602000", "150428.604000", "150428.607000", "150428.610000", "150428.612000", "150428.615000", "150428.618000", "150428.620000", "150428.623000", "150428.626000", "150428.629000", "150428.631000", "150428.634000", "150428.637000", "150428.640000", "150428.642000", "150428.645000", "150428.648000", "150508.595000", "150508.599000", "150508.601000", "150508.604000", "150508.607000", "150508.617000", "150508.619000", "150508.622000", "150508.625000", "150508.628000", "150508.630000", "150508.633000", "150508.636000", "150508.639000", "150508.641000", "150508.644000", "150508.647000", "150508.649000", "150508.652000", "150508.655000", "150548.597000", "150548.599000", "150548.602000", "150548.605000", "150548.608000", "150548.610000", "150548.613000", "150548.616000", "150548.619000", "150548.621000", "150548.624000", "150548.627000", "150548.629000", "150548.632000", "150548.635000", "150548.638000", "150548.640000", "150548.643000", "150548.646000", "150548.649000", "150628.596000", "150628.599000", "150628.601000", "150628.604000", "150628.623000", "150628.626000", "150628.628000", "150628.631000", "150628.634000", "150628.636000", "150628.639000", "150628.642000", "150628.644000", "150628.647000", "150628.650000", "150628.653000", "150628.655000", "150628.658000", "150628.661000", "150628.663000", "150708.596000", "150708.599000", "150708.601000", "150708.604000", "150708.607000", "150708.610000", "150708.612000", "150708.615000", "150708.618000", "150708.621000", "150708.623000", "150708.626000", "150708.629000", "150708.632000", "150708.635000", "150708.637000", "150708.640000", "150708.642000", "150708.645000", "150708.648000", "150748.597000", "150748.600000", "150748.602000", "150748.605000", "150748.608000", "150748.611000", "150748.613000", "150748.616000", "150748.619000", "150748.622000", "150748.624000", "150748.627000", "150748.630000", "150748.633000", "150748.635000", "150748.638000", "150748.641000", "150748.644000", "150748.646000", "150748.649000", "150828.596000", "150828.599000", "150828.601000", "150828.604000", "150828.607000", "150828.610000", "150828.612000", "150828.615000", "150828.618000", "150828.621000", "150828.623000", "150828.626000", "150828.629000", "150828.631000", "150828.634000", "150828.637000", "150828.640000", "150828.642000", "150828.645000", "150828.648000", "150848.596000", "150848.599000", "150848.601000", "150848.609000", "150848.611000", "150848.614000", "150848.617000", "150848.620000", "150848.622000", "150848.625000", "150928.596000", "150928.598000", "150928.601000", "150928.604000", "150928.607000", "150928.610000", "150928.612000", "150928.615000", "150928.618000", "150928.621000", "150928.623000", "150928.626000", "150928.629000", "150928.631000", "150928.634000", "150928.637000", "150928.640000", "150928.643000", "150928.645000", "150928.648000", "151008.597000", "151008.600000", "151008.602000", "151008.605000", "151008.608000", "151008.611000", "151008.613000", "151008.616000", "151008.619000", "151008.621000", "151008.624000", "151008.627000", "151008.630000", "151008.633000", "151008.635000", "151008.638000", "151008.641000", "151008.644000", "151008.646000", "151008.649000", "151048.596000", "151048.599000", "151048.601000", "151048.604000", "151048.607000", "151048.610000", "151048.612000", "151048.615000", "151048.618000", "151048.620000", "151048.623000", "151048.626000", "151048.629000", "151048.631000", "151048.634000", "151048.637000", "151048.639000", "151048.642000", "151048.645000", "151048.648000", "151128.596000", "151128.599000", "151128.601000", "151128.604000", "151128.607000", "151128.610000", "151128.613000", "151128.615000", "151128.618000", "151128.621000", "151128.624000", "151128.626000", "151128.629000", "151128.632000", "151128.635000", "151128.637000", "151128.640000", "151128.643000", "151128.645000", "151128.648000", "151208.596000", "151208.599000", "151208.602000", "151208.604000", "151208.607000", "151208.610000", "151208.612000", "151208.615000", "151208.618000", "151208.621000", "151208.623000", "151208.626000", "151208.629000", "151208.632000", "151208.635000", "151208.638000", "151208.640000", "151208.643000", "151208.646000", "151208.649000", "151211.210000", "151211.214000"],
      "DataSetTrailingPadding": [
        "\u0000\u0000\u0000\u0000\u0000\u0000\u0000\u0000\u0000\u0000\u0000\u0000\u0000\u0000\u0000\u0000\u0000\u0000\u0000\u0000\u0000\u0000\u0000\u0000\u0000\u0000\u0000\u0000\u0000\u0000\u0000\u0000\u0000\u0000\u0000\u0000\u0000\u0000\u0000\u0000\u0000\u0000\u0000\u0000\u0000\u0000\u0000\u0000\u0000\u0000\u0000\u0000\u0000\u0000\u0000\u0000\u0000\u0000\u0000\u0000\u0000\u0000\u0000\u0000\u0000\u0000\u0000\u0000\u0000\u0000\u0000\u0000\u0000\u0000\u0000\u0000\u0000\u0000\u0000\u0000\u0000\u0000\u0000\u0000\u0000\u0000\u0000\u0000\u0000\u0000\u0000\u0000\u0000\u0000\u0000\u0000\u0000\u0000\u0000\u0000\u0000\u0000\u0000\u0000\u0000\u0000\u0000\u0000\u0000\u0000\u0000\u0000\u0000\u0000\u0000\u0000\u0000\u0000\u0000\u0000\u0000\u0000\u0000\u0000\u0000\u0000\u0000\u0000\u0000\u0000\u0000\u0000\u0000\u0000\u0000\u0000\u0000\u0000\u0000\u0000\u0000\u0000\u0000\u0000\u0000\u0000\u0000\u0000\u0000\u0000\u0000\u0000\u0000\u0000\u0000\u0000",
        "\u0000\u0000\u0000\u0000\u0000\u0000\u0000\u0000\u0000\u0000\u0000\u0000\u0000\u0000\u0000\u0000\u0000\u0000\u0000\u0000\u0000\u0000\u0000\u0000\u0000\u0000\u0000\u0000\u0000\u0000\u0000\u0000\u0000\u0000\u0000\u0000\u0000\u0000\u0000\u0000\u0000\u0000\u0000\u0000\u0000\u0000\u0000\u0000\u0000\u0000\u0000\u0000\u0000\u0000\u0000\u0000\u0000\u0000\u0000\u0000\u0000\u0000\u0000\u0000\u0000\u0000\u0000\u0000\u0000\u0000\u0000\u0000\u0000\u0000\u0000\u0000\u0000\u0000\u0000\u0000\u0000\u0000\u0000\u0000\u0000\u0000\u0000\u0000\u0000\u0000\u0000\u0000\u0000\u0000\u0000\u0000\u0000\u0000\u0000\u0000\u0000\u0000\u0000\u0000\u0000\u0000\u0000\u0000\u0000\u0000\u0000\u0000\u0000\u0000\u0000\u0000\u0000\u0000\u0000\u0000\u0000\u0000\u0000\u0000\u0000\u0000\u0000\u0000\u0000\u0000\u0000\u0000\u0000\u0000\u0000\u0000\u0000\u0000\u0000\u0000\u0000\u0000\u0000\u0000\u0000\u0000\u0000\u0000\u0000\u0000\u0000\u0000\u0000\u0000\u0000\u0000",
        "\u0000\u0000\u0000\u0000\u0000\u0000\u0000\u0000\u0000\u0000\u0000\u0000\u0000\u0000\u0000\u0000\u0000\u0000\u0000\u0000\u0000\u0000\u0000\u0000\u0000\u0000\u0000\u0000\u0000\u0000\u0000\u0000\u0000\u0000\u0000\u0000\u0000\u0000\u0000\u0000\u0000\u0000\u0000\u0000\u0000\u0000\u0000\u0000\u0000\u0000\u0000\u0000\u0000\u0000\u0000\u0000\u0000\u0000\u0000\u0000\u0000\u0000\u0000\u0000\u0000\u0000\u0000\u0000\u0000\u0000\u0000\u0000\u0000\u0000\u0000\u0000\u0000\u0000\u0000\u0000\u0000\u0000\u0000\u0000\u0000\u0000\u0000\u0000\u0000\u0000\u0000\u0000\u0000\u0000\u0000\u0000\u0000\u0000\u0000\u0000\u0000\u0000\u0000\u0000\u0000\u0000\u0000\u0000\u0000\u0000\u0000\u0000\u0000\u0000\u0000\u0000\u0000\u0000\u0000\u0000\u0000\u0000\u0000\u0000\u0000\u0000\u0000\u0000\u0000\u0000\u0000\u0000\u0000\u0000\u0000\u0000\u0000\u0000\u0000\u0000\u0000\u0000\u0000\u0000\u0000\u0000\u0000\u0000\u0000\u0000\u0000\u0000\u0000\u0000\u0000\u0000",
        "\u0000\u0000\u0000\u0000\u0000\u0000\u0000\u0000\u0000\u0000\u0000\u0000\u0000\u0000\u0000\u0000\u0000\u0000\u0000\u0000\u0000\u0000\u0000\u0000\u0000\u0000\u0000\u0000\u0000\u0000\u0000\u0000\u0000\u0000\u0000\u0000\u0000\u0000\u0000\u0000\u0000\u0000\u0000\u0000\u0000\u0000\u0000\u0000\u0000\u0000\u0000\u0000\u0000\u0000\u0000\u0000\u0000\u0000\u0000\u0000\u0000\u0000\u0000\u0000\u0000\u0000\u0000\u0000\u0000\u0000\u0000\u0000\u0000\u0000\u0000\u0000\u0000\u0000\u0000\u0000\u0000\u0000\u0000\u0000\u0000\u0000\u0000\u0000\u0000\u0000\u0000\u0000\u0000\u0000\u0000\u0000\u0000\u0000\u0000\u0000\u0000\u0000\u0000\u0000\u0000\u0000\u0000\u0000\u0000\u0000\u0000\u0000\u0000\u0000\u0000\u0000\u0000\u0000\u0000\u0000\u0000\u0000\u0000\u0000\u0000\u0000\u0000\u0000\u0000\u0000\u0000\u0000\u0000\u0000\u0000\u0000\u0000\u0000\u0000\u0000\u0000\u0000\u0000\u0000\u0000\u0000\u0000\u0000\u0000\u0000\u0000\u0000\u0000\u0000\u0000\u0000",
        "\u0000\u0000\u0000\u0000\u0000\u0000\u0000\u0000\u0000\u0000\u0000\u0000\u0000\u0000\u0000\u0000\u0000\u0000\u0000\u0000\u0000\u0000\u0000\u0000\u0000\u0000\u0000\u0000\u0000\u0000\u0000\u0000\u0000\u0000\u0000\u0000\u0000\u0000\u0000\u0000\u0000\u0000\u0000\u0000\u0000\u0000\u0000\u0000\u0000\u0000\u0000\u0000\u0000\u0000\u0000\u0000\u0000\u0000\u0000\u0000\u0000\u0000\u0000\u0000\u0000\u0000\u0000\u0000\u0000\u0000\u0000\u0000\u0000\u0000\u0000\u0000\u0000\u0000\u0000\u0000\u0000\u0000\u0000\u0000\u0000\u0000\u0000\u0000\u0000\u0000\u0000\u0000\u0000\u0000\u0000\u0000\u0000\u0000\u0000\u0000\u0000\u0000\u0000\u0000\u0000\u0000\u0000\u0000\u0000\u0000\u0000\u0000\u0000\u0000\u0000\u0000\u0000\u0000\u0000\u0000\u0000\u0000\u0000\u0000\u0000\u0000\u0000\u0000\u0000\u0000\u0000\u0000\u0000\u0000\u0000\u0000\u0000\u0000\u0000\u0000\u0000\u0000\u0000\u0000\u0000\u0000\u0000\u0000\u0000\u0000\u0000\u0000\u0000\u0000",
        "\u0000\u0000\u0000\u0000\u0000\u0000\u0000\u0000\u0000\u0000\u0000\u0000\u0000\u0000\u0000\u0000\u0000\u0000\u0000\u0000\u0000\u0000\u0000\u0000\u0000\u0000\u0000\u0000\u0000\u0000\u0000\u0000\u0000\u0000\u0000\u0000\u0000\u0000\u0000\u0000\u0000\u0000\u0000\u0000\u0000\u0000\u0000\u0000\u0000\u0000\u0000\u0000\u0000\u0000\u0000\u0000\u0000\u0000\u0000\u0000\u0000\u0000\u0000\u0000\u0000\u0000\u0000\u0000\u0000\u0000\u0000\u0000\u0000\u0000\u0000\u0000\u0000\u0000\u0000\u0000\u0000\u0000\u0000\u0000\u0000\u0000\u0000\u0000\u0000\u0000\u0000\u0000\u0000\u0000\u0000\u0000\u0000\u0000\u0000\u0000\u0000\u0000\u0000\u0000\u0000\u0000\u0000\u0000\u0000\u0000\u0000\u0000\u0000\u0000\u0000\u0000\u0000\u0000\u0000\u0000\u0000\u0000\u0000\u0000\u0000\u0000\u0000\u0000\u0000\u0000\u0000\u0000\u0000\u0000\u0000\u0000\u0000\u0000\u0000\u0000\u0000\u0000\u0000\u0000\u0000\u0000\u0000\u0000\u0000\u0000\u0000\u0000\u0000\u0000",
        "\u0000\u0000\u0000\u0000\u0000\u0000\u0000\u0000\u0000\u0000\u0000\u0000\u0000\u0000\u0000\u0000\u0000\u0000\u0000\u0000\u0000\u0000\u0000\u0000\u0000\u0000\u0000\u0000\u0000\u0000\u0000\u0000\u0000\u0000\u0000\u0000\u0000\u0000\u0000\u0000\u0000\u0000\u0000\u0000\u0000\u0000\u0000\u0000\u0000\u0000\u0000\u0000\u0000\u0000\u0000\u0000\u0000\u0000\u0000\u0000\u0000\u0000\u0000\u0000\u0000\u0000\u0000\u0000\u0000\u0000\u0000\u0000\u0000\u0000\u0000\u0000\u0000\u0000\u0000\u0000\u0000\u0000\u0000\u0000\u0000\u0000\u0000\u0000\u0000\u0000\u0000\u0000\u0000\u0000\u0000\u0000\u0000\u0000\u0000\u0000\u0000\u0000\u0000\u0000\u0000\u0000\u0000\u0000\u0000\u0000\u0000\u0000\u0000\u0000\u0000\u0000\u0000\u0000\u0000\u0000\u0000\u0000\u0000\u0000\u0000\u0000\u0000\u0000\u0000\u0000\u0000\u0000\u0000\u0000\u0000\u0000\u0000\u0000\u0000\u0000\u0000\u0000\u0000\u0000\u0000\u0000\u0000\u0000\u0000\u0000\u0000\u0000\u0000\u0000",
        "\u0000\u0000\u0000\u0000\u0000\u0000\u0000\u0000\u0000\u0000\u0000\u0000\u0000\u0000\u0000\u0000\u0000\u0000\u0000\u0000\u0000\u0000\u0000\u0000\u0000\u0000\u0000\u0000\u0000\u0000\u0000\u0000\u0000\u0000\u0000\u0000\u0000\u0000\u0000\u0000\u0000\u0000\u0000\u0000\u0000\u0000\u0000\u0000\u0000\u0000\u0000\u0000\u0000\u0000\u0000\u0000\u0000\u0000\u0000\u0000\u0000\u0000\u0000\u0000\u0000\u0000\u0000\u0000\u0000\u0000\u0000\u0000\u0000\u0000\u0000\u0000\u0000\u0000\u0000\u0000\u0000\u0000\u0000\u0000\u0000\u0000\u0000\u0000\u0000\u0000\u0000\u0000\u0000\u0000\u0000\u0000\u0000\u0000\u0000\u0000\u0000\u0000\u0000\u0000\u0000\u0000\u0000\u0000\u0000\u0000\u0000\u0000\u0000\u0000\u0000\u0000\u0000\u0000\u0000\u0000\u0000\u0000\u0000\u0000\u0000\u0000\u0000\u0000\u0000\u0000\u0000\u0000\u0000\u0000\u0000\u0000\u0000\u0000\u0000\u0000\u0000\u0000\u0000\u0000\u0000\u0000\u0000\u0000\u0000\u0000\u0000\u0000\u0000\u0000",
        "\u0000\u0000\u0000\u0000\u0000\u0000\u0000\u0000\u0000\u0000\u0000\u0000\u0000\u0000\u0000\u0000\u0000\u0000\u0000\u0000\u0000\u0000\u0000\u0000\u0000\u0000\u0000\u0000\u0000\u0000\u0000\u0000\u0000\u0000\u0000\u0000\u0000\u0000\u0000\u0000\u0000\u0000\u0000\u0000\u0000\u0000\u0000\u0000\u0000\u0000\u0000\u0000\u0000\u0000\u0000\u0000\u0000\u0000\u0000\u0000\u0000\u0000\u0000\u0000\u0000\u0000\u0000\u0000\u0000\u0000\u0000\u0000\u0000\u0000\u0000\u0000\u0000\u0000\u0000\u0000\u0000\u0000\u0000\u0000\u0000\u0000\u0000\u0000\u0000\u0000\u0000\u0000\u0000\u0000\u0000\u0000\u0000\u0000\u0000\u0000\u0000\u0000\u0000\u0000\u0000\u0000\u0000\u0000\u0000\u0000\u0000\u0000\u0000\u0000\u0000\u0000\u0000\u0000\u0000\u0000\u0000\u0000\u0000\u0000\u0000\u0000\u0000\u0000\u0000\u0000\u0000\u0000\u0000\u0000\u0000\u0000\u0000\u0000\u0000\u0000\u0000\u0000\u0000\u0000\u0000\u0000\u0000\u0000\u0000\u0000\u0000\u0000\u0000\u0000",
        "\u0000\u0000\u0000\u0000\u0000\u0000\u0000\u0000\u0000\u0000\u0000\u0000\u0000\u0000\u0000\u0000\u0000\u0000\u0000\u0000\u0000\u0000\u0000\u0000\u0000\u0000\u0000\u0000\u0000\u0000\u0000\u0000\u0000\u0000\u0000\u0000\u0000\u0000\u0000\u0000\u0000\u0000\u0000\u0000\u0000\u0000\u0000\u0000\u0000\u0000\u0000\u0000\u0000\u0000\u0000\u0000\u0000\u0000\u0000\u0000\u0000\u0000\u0000\u0000\u0000\u0000\u0000\u0000\u0000\u0000\u0000\u0000\u0000\u0000\u0000\u0000\u0000\u0000\u0000\u0000\u0000\u0000\u0000\u0000\u0000\u0000\u0000\u0000\u0000\u0000\u0000\u0000\u0000\u0000\u0000\u0000\u0000\u0000\u0000\u0000\u0000\u0000\u0000\u0000\u0000\u0000\u0000\u0000\u0000\u0000\u0000\u0000\u0000\u0000\u0000\u0000\u0000\u0000\u0000\u0000\u0000\u0000\u0000\u0000\u0000\u0000\u0000\u0000\u0000\u0000\u0000\u0000\u0000\u0000\u0000\u0000\u0000\u0000\u0000\u0000\u0000\u0000\u0000\u0000\u0000\u0000\u0000\u0000\u0000\u0000",
        "\u0000\u0000\u0000\u0000\u0000\u0000\u0000\u0000\u0000\u0000\u0000\u0000\u0000\u0000\u0000\u0000\u0000\u0000\u0000\u0000\u0000\u0000\u0000\u0000\u0000\u0000\u0000\u0000\u0000\u0000\u0000\u0000\u0000\u0000\u0000\u0000\u0000\u0000\u0000\u0000\u0000\u0000\u0000\u0000\u0000\u0000\u0000\u0000\u0000\u0000\u0000\u0000\u0000\u0000\u0000\u0000\u0000\u0000\u0000\u0000\u0000\u0000\u0000\u0000\u0000\u0000\u0000\u0000\u0000\u0000\u0000\u0000\u0000\u0000\u0000\u0000\u0000\u0000\u0000\u0000\u0000\u0000\u0000\u0000\u0000\u0000\u0000\u0000\u0000\u0000\u0000\u0000\u0000\u0000\u0000\u0000\u0000\u0000\u0000\u0000\u0000\u0000\u0000\u0000\u0000\u0000\u0000\u0000\u0000\u0000\u0000\u0000\u0000\u0000\u0000\u0000\u0000\u0000\u0000\u0000\u0000\u0000\u0000\u0000\u0000\u0000\u0000\u0000\u0000\u0000\u0000\u0000\u0000\u0000\u0000\u0000\u0000\u0000\u0000\u0000\u0000\u0000\u0000\u0000\u0000\u0000\u0000\u0000\u0000\u0000",
        "\u0000\u0000\u0000\u0000\u0000\u0000\u0000\u0000\u0000\u0000\u0000\u0000\u0000\u0000\u0000\u0000\u0000\u0000\u0000\u0000\u0000\u0000\u0000\u0000\u0000\u0000\u0000\u0000\u0000\u0000\u0000\u0000\u0000\u0000\u0000\u0000\u0000\u0000\u0000\u0000\u0000\u0000\u0000\u0000\u0000\u0000\u0000\u0000\u0000\u0000\u0000\u0000\u0000\u0000\u0000\u0000\u0000\u0000\u0000\u0000\u0000\u0000\u0000\u0000\u0000\u0000\u0000\u0000\u0000\u0000\u0000\u0000\u0000\u0000\u0000\u0000\u0000\u0000\u0000\u0000\u0000\u0000\u0000\u0000\u0000\u0000\u0000\u0000\u0000\u0000\u0000\u0000\u0000\u0000\u0000\u0000\u0000\u0000\u0000\u0000\u0000\u0000\u0000\u0000\u0000\u0000\u0000\u0000\u0000\u0000\u0000\u0000\u0000\u0000\u0000\u0000\u0000\u0000\u0000\u0000\u0000\u0000\u0000\u0000\u0000\u0000\u0000\u0000\u0000\u0000\u0000\u0000\u0000\u0000\u0000\u0000\u0000\u0000\u0000\u0000\u0000\u0000\u0000\u0000\u0000\u0000\u0000\u0000\u0000\u0000",
