{
  "AcquisitionMatrixPE": 70,
  "AcquisitionNumber": 1,
  "AcquisitionTime": "15:13:48.192500",
  "BandwidthPerPixelPhaseEncode": 51.948,
  "BaseResolution": 70,
  "BodyPartExamined": "HEAD",
  "CoilCombinationMethod": "Sum of Squares",
  "ConsistencyInfo": "N4_VE11C_LATEST_20160120",
  "ConversionSoftware": "dcm2niix",
  "ConversionSoftwareVersion": "v1.0.20220720",
  "DerivedVendorReportedEchoSpacing": 0.000550001,
  "DeviceSerialNumber": "66061",
  "DwellTime": 3.3e-06,
  "EchoTime": 0.022,
  "EchoTrainLength": 35,
  "EffectiveEchoSpacing": 0.000275,
  "FlipAngle": 90,
  "HeudiconvVersion": "1.1.1",
  "ImageOrientationPatientDICOM": [0.999998, 0.000885319, -0.00191101, -0.00122174, 0.982935, -0.183949],
  "ImageOrientationText": "Tra>Cor(-10.6)>Sag(-0.1)",
  "ImageType": [
    "ORIGINAL",
    "PRIMARY",
    "M",
    "ND",
    "NORM",
    "MOSAIC"
],
  "ImagingFrequency": 123.254,
  "InPlanePhaseEncodingDirectionDICOM": "COL",
  "InstitutionAddress": "Street StreetNo,City/1c4204/,District,KR,ZIP",
  "InstitutionName": "SKKU",
  "InstitutionalDepartmentName": "Department",
  "MRAcquisitionType": "2D",
  "MagneticFieldStrength": 3,
  "Manufacturer": "Siemens",
  "ManufacturersModelName": "Prisma",
  "MatrixCoilMode": "GRAPPA",
  "Modality": "MR",
  "NonlinearGradientCorrection": false,
  "ParallelReductionFactorInPlane": 2,
  "PartialFourier": 1,
  "PatientPosition": "HFS",
  "PercentPhaseFOV": 100,
  "PercentSampling": 100,
  "PhaseEncodingDirection": "j-",
  "PhaseEncodingSteps": 70,
  "PhaseResolution": 1,
  "PixelBandwidth": 2165,
  "ProcedureStepDescription": "Head^PI:Others",
  "ProtocolName": "BOLD_ep2d_3x3x3_response2",
  "PulseSequenceDetails": "%SiemensSeq%\\ep2d_pace",
  "ReceiveCoilActiveElements": "HC1-7",
  "ReceiveCoilName": "HeadNeck_64",
  "ReconMatrixPE": 70,
  "RefLinesPE": 24,
  "RepetitionTime": 2,
  "SAR": 0.127375,
  "ScanOptions": "FS",
  "ScanningSequence": "EP",
  "SequenceName": "*epfid2d1_70",
  "SequenceVariant": "SK",
  "SeriesDescription": "BOLD_ep2d_3x3x3_response2",
  "SeriesNumber": 9,
  "ShimSetting": [5039, 3740, 4435, 420, -53, -82, -42, 95],
  "SliceThickness": 3,
  "SliceTiming": [0.99, 0, 1.0375, 0.0475, 1.085, 0.095, 1.13, 0.14, 1.1775, 0.1875, 1.225, 0.235, 1.2725, 0.2825, 1.32, 0.33, 1.3675, 0.3775, 1.415, 0.425, 1.46, 0.47, 1.5075, 0.5175, 1.555, 0.565, 1.6025, 0.6125, 1.65, 0.66, 1.6975, 0.7075, 1.745, 0.755, 1.79, 0.8, 1.8375, 0.8475, 1.885, 0.895, 1.9325, 0.9425],
  "SoftwareVersions": "syngo MR E11",
  "SpacingBetweenSlices": 3,
  "StationName": "AWP66061",
  "TaskName": "response",
  "TotalReadoutTime": 0.018975,
  "TxRefAmp": 258.686,
  "dcmmeta_affine": [
    [-2.999993324279785, -0.0036652260459959507, -0.005146622192114592, 103.58113861083984],
    [-0.0026559566613286734, 2.9488048553466797, -0.5518540143966675, -85.83554077148438],
    [-0.005733018275350332, 0.5518482327461243, 2.9488015174865723, -67.48303985595703],
    [0.0, 0.0, 0.0, 1.0]
],
  "dcmmeta_reorient_transform": [
    [0.0, -1.0, 0.0, 69.0],
    [1.0, 0.0, 0.0, 0.0],
    [0.0, 0.0, -1.0, 41.0],
    [0.0, 0.0, 0.0, 1.0]
],
  "dcmmeta_shape": [70, 70, 42, 341],
  "dcmmeta_slice_dim": 2,
  "dcmmeta_version": 0.6,
  "global": {
    "const": {
      "AcquisitionMatrix": [70, 0, 0, 70],
      "AngioFlag": "N",
      "BitsAllocated": 16,
      "BitsStored": 12,
      "BodyPartExamined": "HEAD",
      "Columns": 490,
      "EchoNumbers": 1,
      "EchoTime": 22.0,
      "EchoTrainLength": 35,
      "FlipAngle": 90.0,
      "HighBit": 11,
      "ImageOrientationPatient": [0.99999778213068, 0.00088531885271, -0.0019110060812, -0.0012217420137, 0.9829349511144, -0.1839494202877],
      "ImagePositionPatient": [-732.34613311832, -714.81274862266, 208.58742436744],
      "ImageType": [
        "ORIGINAL",
        "PRIMARY",
        "M",
        "ND",
        "NORM",
        "MOSAIC"
],
      "ImagedNucleus": "1H",
      "ImagingFrequency": 123.254451,
      "InPlanePhaseEncodingDirection": "COL",
      "MRAcquisitionType": "2D",
      "MagneticFieldStrength": 3.0,
      "Manufacturer": "SIEMENS",
      "ManufacturerModelName": "Prisma",
      "Modality": "MR",
      "NumberOfAverages": 1.0,
      "NumberOfPhaseEncodingSteps": 70,
      "PercentPhaseFieldOfView": 100.0,
      "PercentSampling": 100.0,
      "PerformedProcedureStepStartTime": "141324.871000",
      "PhotometricInterpretation": "MONOCHROME2",
      "PixelBandwidth": 2165.0,
      "PixelRepresentation": 0,
      "PixelSpacing": [3.0, 3.0],
      "ProtocolName": "BOLD_ep2d_3x3x3_response2",
      "RepetitionTime": 2000.0,
      "Rows": 490,
      "SAR": 0.12737539398471,
      "SamplesPerPixel": 1,
      "ScanOptions": "FS",
      "ScanningSequence": "EP",
      "SequenceName": "*epfid2d1_70",
      "SequenceVariant": "SK",
      "SeriesDescription": "BOLD_ep2d_3x3x3_response2",
      "SeriesNumber": 9,
      "SeriesTime": "151444.005000",
      "SliceLocation": 72.280502996695,
      "SliceThickness": 3.0,
      "SmallestImagePixelValue": 0,
      "SoftwareVersions": "syngo MR E11",
      "SpacingBetweenSlices": 2.9999999984844,
      "SpecificCharacterSet": "ISO_IR 100",
      "StudyID": "1",
      "StudyTime": "141324.812000",
      "TransmitCoilName": "Body",
      "VariableFlipAngleFlag": "N",
      "WindowCenterWidthExplanation": "Algo1",
      "dBdt": 0.0},
    "slices": {}
  },
  "time": {
    "samples": {
      "AcquisitionNumber": [1, 2, 3, 4, 5, 6, 7, 8, 9, 10, 11, 12, 13, 14, 15, 16, 17, 18, 19, 20, 21, 22, 23, 24, 25, 26, 27, 28, 29, 30, 31, 32, 33, 34, 35, 36, 37, 38, 39, 40, 41, 42, 43, 44, 45, 46, 47, 48, 49, 50, 51, 52, 53, 54, 55, 56, 57, 58, 59, 60, 61, 62, 63, 64, 65, 66, 67, 68, 69, 70, 71, 72, 73, 74, 75, 76, 77, 78, 79, 80, 81, 82, 83, 84, 85, 86, 87, 88, 89, 90, 91, 92, 93, 94, 95, 96, 97, 98, 99, 100, 101, 102, 103, 104, 105, 106, 107, 108, 109, 110, 111, 112, 113, 114, 115, 116, 117, 118, 119, 120, 121, 122, 123, 124, 125, 126, 127, 128, 129, 130, 131, 132, 133, 134, 135, 136, 137, 138, 139, 140, 141, 142, 143, 144, 145, 146, 147, 148, 149, 150, 151, 152, 153, 154, 155, 156, 157, 158, 159, 160, 161, 162, 163, 164, 165, 166, 167, 168, 169, 170, 171, 172, 173, 174, 175, 176, 177, 178, 179, 180, 181, 182, 183, 184, 185, 186, 187, 188, 189, 190, 191, 192, 193, 194, 195, 196, 197, 198, 199, 200, 201, 202, 203, 204, 205, 206, 207, 208, 209, 210, 211, 212, 213, 214, 215, 216, 217, 218, 219, 220, 221, 222, 223, 224, 225, 226, 227, 228, 229, 230, 231, 232, 233, 234, 235, 236, 237, 238, 239, 240, 241, 242, 243, 244, 245, 246, 247, 248, 249, 250, 251, 252, 253, 254, 255, 256, 257, 258, 259, 260, 261, 262, 263, 264, 265, 266, 267, 268, 269, 270, 271, 272, 273, 274, 275, 276, 277, 278, 279, 280, 281, 282, 283, 284, 285, 286, 287, 288, 289, 290, 291, 292, 293, 294, 295, 296, 297, 298, 299, 300, 301, 302, 303, 304, 305, 306, 307, 308, 309, 310, 311, 312, 313, 314, 315, 316, 317, 318, 319, 320, 321, 322, 323, 324, 325, 326, 327, 328, 329, 330, 331, 332, 333, 334, 335, 336, 337, 338, 339, 340, 341],
      "AcquisitionTime": ["151348.192500", "151350.192500", "151352.192500", "151354.192500", "151356.192500", "151358.192500", "151400.192500", "151402.192500", "151404.192500", "151406.192500", "151408.192500", "151410.192500", "151412.192500", "151414.192500", "151416.192500", "151418.192500", "151420.192500", "151422.192500", "151424.192500", "151426.192500", "151428.192500", "151430.192500", "151432.192500", "151434.192500", "151436.192500", "151438.192500", "151440.192500", "151442.192500", "151444.192500", "151446.192500", "151448.192500", "151450.192500", "151452.192500", "151454.192500", "151456.192500", "151458.192500", "151500.192500", "151502.192500", "151504.192500", "151506.192500", "151508.192500", "151510.192500", "151512.192500", "151514.192500", "151516.192500", "151518.192500", "151520.192500", "151522.192500", "151524.192500", "151526.192500", "151528.192500", "151530.192500", "151532.192500", "151534.192500", "151536.192500", "151538.192500", "151540.192500", "151542.192500", "151544.192500", "151546.192500", "151548.192500", "151550.192500", "151552.192500", "151554.192500", "151556.192500", "151558.192500", "151600.192500", "151602.192500", "151604.192500", "151606.192500", "151608.192500", "151610.192500", "151612.192500", "151614.192500", "151616.192500", "151618.192500", "151620.192500", "151622.192500", "151624.192500", "151626.192500", "151628.192500", "151630.192500", "151632.192500", "151634.192500", "151636.192500", "151638.192500", "151640.192500", "151642.192500", "151644.192500", "151646.192500", "151648.192500", "151650.192500", "151652.192500", "151654.192500", "151656.192500", "151658.192500", "151700.192500", "151702.192500", "151704.192500", "151706.192500", "151708.192500", "151710.192500", "151712.192500", "151714.192500", "151716.192500", "151718.192500", "151720.192500", "151722.192500", "151724.192500", "151726.192500", "151728.192500", "151730.192500", "151732.192500", "151734.192500", "151736.192500", "151738.192500", "151740.192500", "151742.192500", "151744.192500", "151746.192500", "151748.192500", "151750.192500", "151752.192500", "151754.192500", "151756.192500", "151758.192500", "151800.192500", "151802.192500", "151804.192500", "151806.192500", "151808.192500", "151810.192500", "151812.192500", "151814.192500", "151816.192500", "151818.192500", "151820.192500", "151822.192500", "151824.192500", "151826.192500", "151828.192500", "151830.192500", "151832.192500", "151834.192500", "151836.192500", "151838.192500", "151840.192500", "151842.192500", "151844.192500", "151846.192500", "151848.192500", "151850.192500", "151852.192500", "151854.192500", "151856.192500", "151858.192500", "151900.192500", "151902.192500", "151904.192500", "151906.192500", "151908.192500", "151910.192500", "151912.192500", "151914.192500", "151916.192500", "151918.192500", "151920.192500", "151922.192500", "151924.192500", "151926.192500", "151928.192500", "151930.192500", "151932.192500", "151934.192500", "151936.192500", "151938.192500", "151940.192500", "151942.192500", "151944.192500", "151946.192500", "151948.192500", "151950.192500", "151952.192500", "151954.192500", "151956.192500", "151958.192500", "152000.192500", "152002.192500", "152004.192500", "152006.192500", "152008.192500", "152010.192500", "152012.192500", "152014.192500", "152016.192500", "152018.192500", "152020.192500", "152022.192500", "152024.192500", "152026.192500", "152028.192500", "152030.192500", "152032.192500", "152034.192500", "152036.192500", "152038.192500", "152040.192500", "152042.192500", "152044.192500", "152046.192500", "152048.192500", "152050.192500", "152052.192500", "152054.192500", "152056.192500", "152058.192500", "152100.192500", "152102.192500", "152104.192500", "152106.192500", "152108.192500", "152110.192500", "152112.192500", "152114.192500", "152116.192500", "152118.192500", "152120.192500", "152122.192500", "152124.192500", "152126.192500", "152128.192500", "152130.192500", "152132.192500", "152134.192500", "152136.192500", "152138.192500", "152140.192500", "152142.192500", "152144.192500", "152146.192500", "152148.192500", "152150.192500", "152152.192500", "152154.192500", "152156.192500", "152158.192500", "152200.192500", "152202.192500", "152204.192500", "152206.192500", "152208.192500", "152210.192500", "152212.192500", "152214.192500", "152216.192500", "152218.192500", "152220.192500", "152222.192500", "152224.192500", "152226.192500", "152228.192500", "152230.192500", "152232.192500", "152234.192500", "152236.192500", "152238.192500", "152240.192500", "152242.192500", "152244.192500", "152246.192500", "152248.192500", "152250.192500", "152252.192500", "152254.192500", "152256.192500", "152258.192500", "152300.192500", "152302.192500", "152304.192500", "152306.192500", "152308.192500", "152310.192500", "152312.192500", "152314.192500", "152316.192500", "152318.192500", "152320.192500", "152322.192500", "152324.192500", "152326.192500", "152328.192500", "152330.192500", "152332.192500", "152334.192500", "152336.192500", "152338.192500", "152340.192500", "152342.192500", "152344.192500", "152346.192500", "152348.192500", "152350.192500", "152352.192500", "152354.192500", "152356.192500", "152358.192500", "152400.192500", "152402.192500", "152404.192500", "152406.192500", "152408.192500", "152410.192500", "152412.192500", "152414.192500", "152416.192500", "152418.192500", "152420.192500", "152422.192500", "152424.192500", "152426.192500", "152428.192500", "152430.192500", "152432.192500", "152434.192500", "152436.192500", "152438.192500", "152440.192500", "152442.192500", "152444.192500", "152446.192500", "152448.192500", "152450.192500", "152452.192500", "152454.192500", "152456.192500", "152458.192500", "152500.192500", "152502.192500", "152504.192500", "152506.192500", "152508.192500"],
      "ContentTime": ["151444.008000", "151444.012000", "151444.015000", "151444.018000", "151444.020000", "151444.023000", "151444.026000", "151444.028000", "151444.031000", "151444.034000", "151444.037000", "151444.039000", "151444.042000", "151444.045000", "151444.050000", "151444.053000", "151444.061000", "151444.063000", "151444.066000", "151444.069000", "151444.072000", "151444.074000", "151444.081000", "151444.084000", "151444.087000", "151444.090000", "151444.092000", "151444.095000", "151524.005000", "151524.008000", "151524.010000", "151524.013000", "151524.016000", "151524.019000", "151524.021000", "151524.024000", "151524.027000", "151524.030000", "151524.033000", "151524.035000", "151524.038000", "151524.041000", "151524.043000", "151524.046000", "151524.056000", "151524.058000", "151524.061000", "151524.064000", "151604.004000", "151604.007000", "151604.009000", "151604.012000", "151604.015000", "151604.018000", "151604.020000", "151604.023000", "151604.026000", "151604.028000", "151604.031000", "151604.034000", "151604.037000", "151604.039000", "151604.042000", "151604.045000", "151604.059000", "151604.061000", "151604.064000", "151604.067000", "151644.004000", "151644.007000", "151644.009000", "151644.012000", "151644.015000", "151644.018000", "151644.020000", "151644.023000", "151644.026000", "151644.028000", "151644.031000", "151644.034000", "151644.037000", "151644.039000", "151644.042000", "151644.045000", "151644.047000", "151644.050000", "151644.059000", "151644.062000", "151724.004000", "151724.007000", "151724.009000", "151724.012000", "151724.015000", "151724.018000", "151724.020000", "151724.023000", "151724.026000", "151724.028000", "151724.031000", "151724.034000", "151724.037000", "151724.039000", "151724.042000", "151724.045000", "151724.048000", "151724.051000", "151724.053000", "151724.056000", "151804.005000", "151804.007000", "151804.010000", "151804.013000", "151804.016000", "151804.018000", "151804.021000", "151804.024000", "151804.027000", "151804.029000", "151804.032000", "151804.035000", "151804.037000", "151804.040000", "151804.043000", "151804.046000", "151804.049000", "151804.051000", "151804.054000", "151804.056000", "151844.004000", "151844.007000", "151844.010000", "151844.012000", "151844.015000", "151844.018000", "151844.020000", "151844.023000", "151844.026000", "151844.029000", "151844.031000", "151844.034000", "151844.037000", "151844.040000", "151844.042000", "151844.045000", "151844.048000", "151844.051000", "151844.054000", "151844.056000", "151924.004000", "151924.007000", "151924.009000", "151924.012000", "151924.015000", "151924.018000", "151924.020000", "151924.023000", "151924.026000", "151924.028000", "151924.031000", "151924.034000", "151924.043000", "151924.046000", "151924.049000", "151924.051000", "151924.054000", "151924.057000", "151924.060000", "151924.063000", "152004.005000", "152004.007000", "152004.010000", "152004.013000", "152004.016000", "152004.019000", "152004.021000", "152004.024000", "152004.027000", "152004.030000", "152004.032000", "152004.035000", "152004.038000", "152004.040000", "152004.043000", "152004.046000", "152004.049000", "152004.051000", "152004.054000", "152004.057000", "152044.004000", "152044.007000", "152044.009000", "152044.012000", "152044.015000", "152044.018000", "152044.020000", "152044.023000", "152044.026000", "152044.028000", "152044.031000", "152044.034000", "152044.037000", "152044.039000", "152044.042000", "152044.045000", "152044.048000", "152044.051000", "152044.053000", "152044.056000", "152124.004000", "152124.007000", "152124.010000", "152124.012000", "152124.015000", "152124.018000", "152124.021000", "152124.023000", "152124.026000", "152124.029000", "152124.031000", "152124.034000", "152124.037000", "152124.051000", "152124.053000", "152124.056000", "152124.059000", "152124.062000", "152124.064000", "152124.067000", "152204.005000", "152204.008000", "152204.011000", "152204.013000", "152204.016000", "152204.019000", "152204.021000", "152204.024000", "152204.027000", "152204.030000", "152204.033000", "152204.035000", "152204.038000", "152204.041000", "152204.043000", "152204.046000", "152204.049000", "152204.051000", "152204.054000", "152204.057000", "152244.005000", "152244.008000", "152244.010000", "152244.013000", "152244.016000", "152244.019000", "152244.021000", "152244.024000", "152244.027000", "152244.030000", "152244.033000", "152244.035000", "152244.038000", "152244.041000", "152244.043000", "152244.046000", "152244.049000", "152244.051000", "152244.054000", "152244.057000", "152324.004000", "152324.007000", "152324.010000", "152324.012000", "152324.015000", "152324.018000", "152324.021000", "152324.024000", "152324.026000", "152324.029000", "152324.038000", "152324.041000", "152324.044000", "152324.047000", "152324.049000", "152324.052000", "152324.055000", "152324.058000", "152324.060000", "152324.063000", "152404.004000", "152404.007000", "152404.010000", "152404.013000", "152404.015000", "152404.018000", "152404.021000", "152404.023000", "152404.026000", "152404.029000", "152404.032000", "152404.034000", "152404.037000", "152404.040000", "152404.043000", "152404.045000", "152404.048000", "152404.051000", "152404.054000", "152404.056000", "152444.005000", "152444.008000", "152444.011000", "152444.013000", "152444.016000", "152444.019000", "152444.022000", "152444.025000", "152444.027000", "152444.030000", "152444.033000", "152444.035000", "152444.038000", "152444.041000", "152444.044000", "152444.047000", "152444.049000", "152444.052000", "152444.055000", "152444.058000", "152509.315000", "152509.318000", "152509.321000", "152509.324000", "152509.327000", "152509.330000", "152509.332000", "152509.335000", "152509.338000", "152509.341000", "152509.344000", "152509.352000", "152509.357000"],
      "DataSetTrailingPadding": [
        "\u0000\u0000\u0000\u0000\u0000\u0000\u0000\u0000\u0000\u0000\u0000\u0000\u0000\u0000\u0000\u0000\u0000\u0000\u0000\u0000\u0000\u0000\u0000\u0000\u0000\u0000\u0000\u0000\u0000\u0000\u0000\u0000\u0000\u0000\u0000\u0000\u0000\u0000\u0000\u0000\u0000\u0000\u0000\u0000\u0000\u0000\u0000\u0000\u0000\u0000\u0000\u0000\u0000\u0000\u0000\u0000\u0000\u0000\u0000\u0000\u0000\u0000\u0000\u0000\u0000\u0000\u0000\u0000\u0000\u0000\u0000\u0000\u0000\u0000\u0000\u0000\u0000\u0000\u0000\u0000\u0000\u0000\u0000\u0000\u0000\u0000\u0000\u0000\u0000\u0000\u0000\u0000\u0000\u0000\u0000\u0000\u0000\u0000\u0000\u0000\u0000\u0000\u0000\u0000\u0000\u0000\u0000\u0000\u0000\u0000\u0000\u0000\u0000\u0000\u0000\u0000\u0000\u0000\u0000\u0000\u0000\u0000\u0000\u0000\u0000\u0000\u0000\u0000\u0000\u0000\u0000\u0000\u0000\u0000\u0000\u0000\u0000\u0000\u0000\u0000\u0000\u0000\u0000\u0000\u0000\u0000\u0000\u0000\u0000\u0000\u0000\u0000\u0000\u0000\u0000\u0000\u0000\u0000",
        "\u0000\u0000\u0000\u0000\u0000\u0000\u0000\u0000\u0000\u0000\u0000\u0000\u0000\u0000\u0000\u0000\u0000\u0000\u0000\u0000\u0000\u0000\u0000\u0000\u0000\u0000\u0000\u0000\u0000\u0000\u0000\u0000\u0000\u0000\u0000\u0000\u0000\u0000\u0000\u0000\u0000\u0000\u0000\u0000\u0000\u0000\u0000\u0000\u0000\u0000\u0000\u0000\u0000\u0000\u0000\u0000\u0000\u0000\u0000\u0000\u0000\u0000\u0000\u0000\u0000\u0000\u0000\u0000\u0000\u0000\u0000\u0000\u0000\u0000\u0000\u0000\u0000\u0000\u0000\u0000\u0000\u0000\u0000\u0000\u0000\u0000\u0000\u0000\u0000\u0000\u0000\u0000\u0000\u0000\u0000\u0000\u0000\u0000\u0000\u0000\u0000\u0000\u0000\u0000\u0000\u0000\u0000\u0000\u0000\u0000\u0000\u0000\u0000\u0000\u0000\u0000\u0000\u0000\u0000\u0000\u0000\u0000\u0000\u0000\u0000\u0000\u0000\u0000\u0000\u0000\u0000\u0000\u0000\u0000\u0000\u0000\u0000\u0000\u0000\u0000\u0000\u0000\u0000\u0000\u0000\u0000\u0000\u0000\u0000\u0000\u0000\u0000\u0000\u0000\u0000\u0000",
        "\u0000\u0000\u0000\u0000\u0000\u0000\u0000\u0000\u0000\u0000\u0000\u0000\u0000\u0000\u0000\u0000\u0000\u0000\u0000\u0000\u0000\u0000\u0000\u0000\u0000\u0000\u0000\u0000\u0000\u0000\u0000\u0000\u0000\u0000\u0000\u0000\u0000\u0000\u0000\u0000\u0000\u0000\u0000\u0000\u0000\u0000\u0000\u0000\u0000\u0000\u0000\u0000\u0000\u0000\u0000\u0000\u0000\u0000\u0000\u0000\u0000\u0000\u0000\u0000\u0000\u0000\u0000\u0000\u0000\u0000\u0000\u0000\u0000\u0000\u0000\u0000\u0000\u0000\u0000\u0000\u0000\u0000\u0000\u0000\u0000\u0000\u0000\u0000\u0000\u0000\u0000\u0000\u0000\u0000\u0000\u0000\u0000\u0000\u0000\u0000\u0000\u0000\u0000\u0000\u0000\u0000\u0000\u0000\u0000\u0000\u0000\u0000\u0000\u0000\u0000\u0000\u0000\u0000\u0000\u0000\u0000\u0000\u0000\u0000\u0000\u0000\u0000\u0000\u0000\u0000\u0000\u0000\u0000\u0000\u0000\u0000\u0000\u0000\u0000\u0000\u0000\u0000\u0000\u0000\u0000\u0000\u0000\u0000\u0000\u0000\u0000\u0000\u0000\u0000\u0000\u0000",
        "\u0000\u0000\u0000\u0000\u0000\u0000\u0000\u0000\u0000\u0000\u0000\u0000\u0000\u0000\u0000\u0000\u0000\u0000\u0000\u0000\u0000\u0000\u0000\u0000\u0000\u0000\u0000\u0000\u0000\u0000\u0000\u0000\u0000\u0000\u0000\u0000\u0000\u0000\u0000\u0000\u0000\u0000\u0000\u0000\u0000\u0000\u0000\u0000\u0000\u0000\u0000\u0000\u0000\u0000\u0000\u0000\u0000\u0000\u0000\u0000\u0000\u0000\u0000\u0000\u0000\u0000\u0000\u0000\u0000\u0000\u0000\u0000\u0000\u0000\u0000\u0000\u0000\u0000\u0000\u0000\u0000\u0000\u0000\u0000\u0000\u0000\u0000\u0000\u0000\u0000\u0000\u0000\u0000\u0000\u0000\u0000\u0000\u0000\u0000\u0000\u0000\u0000\u0000\u0000\u0000\u0000\u0000\u0000\u0000\u0000\u0000\u0000\u0000\u0000\u0000\u0000\u0000\u0000\u0000\u0000\u0000\u0000\u0000\u0000\u0000\u0000\u0000\u0000\u0000\u0000\u0000\u0000\u0000\u0000\u0000\u0000\u0000\u0000\u0000\u0000\u0000\u0000\u0000\u0000\u0000\u0000\u0000\u0000\u0000\u0000\u0000\u0000\u0000\u0000\u0000\u0000",
        "\u0000\u0000\u0000\u0000\u0000\u0000\u0000\u0000\u0000\u0000\u0000\u0000\u0000\u0000\u0000\u0000\u0000\u0000\u0000\u0000\u0000\u0000\u0000\u0000\u0000\u0000\u0000\u0000\u0000\u0000\u0000\u0000\u0000\u0000\u0000\u0000\u0000\u0000\u0000\u0000\u0000\u0000\u0000\u0000\u0000\u0000\u0000\u0000\u0000\u0000\u0000\u0000\u0000\u0000\u0000\u0000\u0000\u0000\u0000\u0000\u0000\u0000\u0000\u0000\u0000\u0000\u0000\u0000\u0000\u0000\u0000\u0000\u0000\u0000\u0000\u0000\u0000\u0000\u0000\u0000\u0000\u0000\u0000\u0000\u0000\u0000\u0000\u0000\u0000\u0000\u0000\u0000\u0000\u0000\u0000\u0000\u0000\u0000\u0000\u0000\u0000\u0000\u0000\u0000\u0000\u0000\u0000\u0000\u0000\u0000\u0000\u0000\u0000\u0000\u0000\u0000\u0000\u0000\u0000\u0000\u0000\u0000\u0000\u0000\u0000\u0000\u0000\u0000\u0000\u0000\u0000\u0000\u0000\u0000\u0000\u0000\u0000\u0000\u0000\u0000\u0000\u0000\u0000\u0000\u0000\u0000\u0000\u0000\u0000\u0000\u0000\u0000\u0000\u0000",
        "\u0000\u0000\u0000\u0000\u0000\u0000\u0000\u0000\u0000\u0000\u0000\u0000\u0000\u0000\u0000\u0000\u0000\u0000\u0000\u0000\u0000\u0000\u0000\u0000\u0000\u0000\u0000\u0000\u0000\u0000\u0000\u0000\u0000\u0000\u0000\u0000\u0000\u0000\u0000\u0000\u0000\u0000\u0000\u0000\u0000\u0000\u0000\u0000\u0000\u0000\u0000\u0000\u0000\u0000\u0000\u0000\u0000\u0000\u0000\u0000\u0000\u0000\u0000\u0000\u0000\u0000\u0000\u0000\u0000\u0000\u0000\u0000\u0000\u0000\u0000\u0000\u0000\u0000\u0000\u0000\u0000\u0000\u0000\u0000\u0000\u0000\u0000\u0000\u0000\u0000\u0000\u0000\u0000\u0000\u0000\u0000\u0000\u0000\u0000\u0000\u0000\u0000\u0000\u0000\u0000\u0000\u0000\u0000\u0000\u0000\u0000\u0000\u0000\u0000\u0000\u0000\u0000\u0000\u0000\u0000\u0000\u0000\u0000\u0000\u0000\u0000\u0000\u0000\u0000\u0000\u0000\u0000\u0000\u0000\u0000\u0000\u0000\u0000\u0000\u0000\u0000\u0000\u0000\u0000\u0000\u0000\u0000\u0000\u0000\u0000\u0000\u0000\u0000\u0000",
        "\u0000\u0000\u0000\u0000\u0000\u0000\u0000\u0000\u0000\u0000\u0000\u0000\u0000\u0000\u0000\u0000\u0000\u0000\u0000\u0000\u0000\u0000\u0000\u0000\u0000\u0000\u0000\u0000\u0000\u0000\u0000\u0000\u0000\u0000\u0000\u0000\u0000\u0000\u0000\u0000\u0000\u0000\u0000\u0000\u0000\u0000\u0000\u0000\u0000\u0000\u0000\u0000\u0000\u0000\u0000\u0000\u0000\u0000\u0000\u0000\u0000\u0000\u0000\u0000\u0000\u0000\u0000\u0000\u0000\u0000\u0000\u0000\u0000\u0000\u0000\u0000\u0000\u0000\u0000\u0000\u0000\u0000\u0000\u0000\u0000\u0000\u0000\u0000\u0000\u0000\u0000\u0000\u0000\u0000\u0000\u0000\u0000\u0000\u0000\u0000\u0000\u0000\u0000\u0000\u0000\u0000\u0000\u0000\u0000\u0000\u0000\u0000\u0000\u0000\u0000\u0000\u0000\u0000\u0000\u0000\u0000\u0000\u0000\u0000\u0000\u0000\u0000\u0000\u0000\u0000\u0000\u0000\u0000\u0000\u0000\u0000\u0000\u0000\u0000\u0000\u0000\u0000\u0000\u0000\u0000\u0000\u0000\u0000\u0000\u0000\u0000\u0000\u0000\u0000",
        "\u0000\u0000\u0000\u0000\u0000\u0000\u0000\u0000\u0000\u0000\u0000\u0000\u0000\u0000\u0000\u0000\u0000\u0000\u0000\u0000\u0000\u0000\u0000\u0000\u0000\u0000\u0000\u0000\u0000\u0000\u0000\u0000\u0000\u0000\u0000\u0000\u0000\u0000\u0000\u0000\u0000\u0000\u0000\u0000\u0000\u0000\u0000\u0000\u0000\u0000\u0000\u0000\u0000\u0000\u0000\u0000\u0000\u0000\u0000\u0000\u0000\u0000\u0000\u0000\u0000\u0000\u0000\u0000\u0000\u0000\u0000\u0000\u0000\u0000\u0000\u0000\u0000\u0000\u0000\u0000\u0000\u0000\u0000\u0000\u0000\u0000\u0000\u0000\u0000\u0000\u0000\u0000\u0000\u0000\u0000\u0000\u0000\u0000\u0000\u0000\u0000\u0000\u0000\u0000\u0000\u0000\u0000\u0000\u0000\u0000\u0000\u0000\u0000\u0000\u0000\u0000\u0000\u0000\u0000\u0000\u0000\u0000\u0000\u0000\u0000\u0000\u0000\u0000\u0000\u0000\u0000\u0000\u0000\u0000\u0000\u0000\u0000\u0000\u0000\u0000\u0000\u0000\u0000\u0000\u0000\u0000\u0000\u0000\u0000\u0000\u0000\u0000\u0000\u0000",
        "\u0000\u0000\u0000\u0000\u0000\u0000\u0000\u0000\u0000\u0000\u0000\u0000\u0000\u0000\u0000\u0000\u0000\u0000\u0000\u0000\u0000\u0000\u0000\u0000\u0000\u0000\u0000\u0000\u0000\u0000\u0000\u0000\u0000\u0000\u0000\u0000\u0000\u0000\u0000\u0000\u0000\u0000\u0000\u0000\u0000\u0000\u0000\u0000\u0000\u0000\u0000\u0000\u0000\u0000\u0000\u0000\u0000\u0000\u0000\u0000\u0000\u0000\u0000\u0000\u0000\u0000\u0000\u0000\u0000\u0000\u0000\u0000\u0000\u0000\u0000\u0000\u0000\u0000\u0000\u0000\u0000\u0000\u0000\u0000\u0000\u0000\u0000\u0000\u0000\u0000\u0000\u0000\u0000\u0000\u0000\u0000\u0000\u0000\u0000\u0000\u0000\u0000\u0000\u0000\u0000\u0000\u0000\u0000\u0000\u0000\u0000\u0000\u0000\u0000\u0000\u0000\u0000\u0000\u0000\u0000\u0000\u0000\u0000\u0000\u0000\u0000\u0000\u0000\u0000\u0000\u0000\u0000\u0000\u0000\u0000\u0000\u0000\u0000\u0000\u0000\u0000\u0000\u0000\u0000\u0000\u0000\u0000\u0000\u0000\u0000\u0000\u0000\u0000\u0000",
        "\u0000\u0000\u0000\u0000\u0000\u0000\u0000\u0000\u0000\u0000\u0000\u0000\u0000\u0000\u0000\u0000\u0000\u0000\u0000\u0000\u0000\u0000\u0000\u0000\u0000\u0000\u0000\u0000\u0000\u0000\u0000\u0000\u0000\u0000\u0000\u0000\u0000\u0000\u0000\u0000\u0000\u0000\u0000\u0000\u0000\u0000\u0000\u0000\u0000\u0000\u0000\u0000\u0000\u0000\u0000\u0000\u0000\u0000\u0000\u0000\u0000\u0000\u0000\u0000\u0000\u0000\u0000\u0000\u0000\u0000\u0000\u0000\u0000\u0000\u0000\u0000\u0000\u0000\u0000\u0000\u0000\u0000\u0000\u0000\u0000\u0000\u0000\u0000\u0000\u0000\u0000\u0000\u0000\u0000\u0000\u0000\u0000\u0000\u0000\u0000\u0000\u0000\u0000\u0000\u0000\u0000\u0000\u0000\u0000\u0000\u0000\u0000\u0000\u0000\u0000\u0000\u0000\u0000\u0000\u0000\u0000\u0000\u0000\u0000\u0000\u0000\u0000\u0000\u0000\u0000\u0000\u0000\u0000\u0000\u0000\u0000\u0000\u0000\u0000\u0000\u0000\u0000\u0000\u0000\u0000\u0000\u0000\u0000\u0000\u0000",
        "\u0000\u0000\u0000\u0000\u0000\u0000\u0000\u0000\u0000\u0000\u0000\u0000\u0000\u0000\u0000\u0000\u0000\u0000\u0000\u0000\u0000\u0000\u0000\u0000\u0000\u0000\u0000\u0000\u0000\u0000\u0000\u0000\u0000\u0000\u0000\u0000\u0000\u0000\u0000\u0000\u0000\u0000\u0000\u0000\u0000\u0000\u0000\u0000\u0000\u0000\u0000\u0000\u0000\u0000\u0000\u0000\u0000\u0000\u0000\u0000\u0000\u0000\u0000\u0000\u0000\u0000\u0000\u0000\u0000\u0000\u0000\u0000\u0000\u0000\u0000\u0000\u0000\u0000\u0000\u0000\u0000\u0000\u0000\u0000\u0000\u0000\u0000\u0000\u0000\u0000\u0000\u0000\u0000\u0000\u0000\u0000\u0000\u0000\u0000\u0000\u0000\u0000\u0000\u0000\u0000\u0000\u0000\u0000\u0000\u0000\u0000\u0000\u0000\u0000\u0000\u0000\u0000\u0000\u0000\u0000\u0000\u0000\u0000\u0000\u0000\u0000\u0000\u0000\u0000\u0000\u0000\u0000\u0000\u0000\u0000\u0000\u0000\u0000\u0000\u0000\u0000\u0000\u0000\u0000\u0000\u0000\u0000\u0000\u0000\u0000",
        "\u0000\u0000\u0000\u0000\u0000\u0000\u0000\u0000\u0000\u0000\u0000\u0000\u0000\u0000\u0000\u0000\u0000\u0000\u0000\u0000\u0000\u0000\u0000\u0000\u0000\u0000\u0000\u0000\u0000\u0000\u0000\u0000\u0000\u0000\u0000\u0000\u0000\u0000\u0000\u0000\u0000\u0000\u0000\u0000\u0000\u0000\u0000\u0000\u0000\u0000\u0000\u0000\u0000\u0000\u0000\u0000\u0000\u0000\u0000\u0000\u0000\u0000\u0000\u0000\u0000\u0000\u0000\u0000\u0000\u0000\u0000\u0000\u0000\u0000\u0000\u0000\u0000\u0000\u0000\u0000\u0000\u0000\u0000\u0000\u0000\u0000\u0000\u0000\u0000\u0000\u0000\u0000\u0000\u0000\u0000\u0000\u0000\u0000\u0000\u0000\u0000\u0000\u0000\u0000\u0000\u0000\u0000\u0000\u0000\u0000\u0000\u0000\u0000\u0000\u0000\u0000\u0000\u0000\u0000\u0000\u0000\u0000\u0000\u0000\u0000\u0000\u0000\u0000\u0000\u0000\u0000\u0000\u0000\u0000\u0000\u0000\u0000\u0000\u0000\u0000\u0000\u0000\u0000\u0000\u0000\u0000\u0000\u0000\u0000\u0000",
