{
  "AcquisitionMatrixPE": 70,
  "AcquisitionNumber": 1,
  "AcquisitionTime": "12:20:42.297500",
  "BandwidthPerPixelPhaseEncode": 51.948,
  "BaseResolution": 70,
  "BodyPartExamined": "HEAD",
  "CoilCombinationMethod": "Sum of Squares",
  "ConsistencyInfo": "N4_VE11C_LATEST_20160120",
  "ConversionSoftware": "dcm2niix",
  "ConversionSoftwareVersion": "v1.0.20220720",
  "DerivedVendorReportedEchoSpacing": 0.000550001,
  "DeviceSerialNumber": "66061",
  "DwellTime": 3.3e-06,
  "EchoTime": 0.022,
  "EchoTrainLength": 35,
  "EffectiveEchoSpacing": 0.000275,
  "FlipAngle": 90,
  "HeudiconvVersion": "1.1.1",
  "ImageOrientationPatientDICOM": [0.998299, 0.0119424, 0.057071, -0.0012197, 0.982863, -0.184335],
  "ImageOrientationText": "Tra>Cor(-10.6)>Sag(3.3)",
  "ImageType": [
    "ORIGINAL",
    "PRIMARY",
    "M",
    "ND",
    "NORM",
    "MOSAIC"
],
  "ImagingFrequency": 123.254,
  "InPlanePhaseEncodingDirectionDICOM": "COL",
  "InstitutionAddress": "Street StreetNo,City/1c4204/,District,KR,ZIP",
  "InstitutionName": "SKKU",
  "InstitutionalDepartmentName": "Department",
  "MRAcquisitionType": "2D",
  "MagneticFieldStrength": 3,
  "Manufacturer": "Siemens",
  "ManufacturersModelName": "Prisma",
  "MatrixCoilMode": "GRAPPA",
  "Modality": "MR",
  "NonlinearGradientCorrection": false,
  "ParallelReductionFactorInPlane": 2,
  "PartialFourier": 1,
  "PatientPosition": "HFS",
  "PercentPhaseFOV": 100,
  "PercentSampling": 100,
  "PhaseEncodingDirection": "j-",
  "PhaseEncodingSteps": 70,
  "PhaseResolution": 1,
  "PixelBandwidth": 2165,
  "ProcedureStepDescription": "Head^PI:Others",
  "ProtocolName": "BOLD_ep2d_3x3x3_response2",
  "PulseSequenceDetails": "%SiemensSeq%\\ep2d_pace",
  "ReceiveCoilActiveElements": "HC1-7",
  "ReceiveCoilName": "HeadNeck_64",
  "ReconMatrixPE": 70,
  "RefLinesPE": 24,
  "RepetitionTime": 2,
  "SAR": 0.110847,
  "ScanOptions": "FS",
  "ScanningSequence": "EP",
  "SequenceName": "*epfid2d1_70",
  "SequenceVariant": "SK",
  "SeriesDescription": "BOLD_ep2d_3x3x3_response2",
  "SeriesNumber": 8,
  "ShimSetting": [5061, 3719, 4506, 436, 0, 46, -44, 58],
  "SliceThickness": 3,
  "SliceTiming": [0.99, 0, 1.0375, 0.0475, 1.085, 0.095, 1.1325, 0.1425, 1.18, 0.19, 1.2275, 0.2375, 1.2725, 0.2825, 1.32, 0.33, 1.3675, 0.3775, 1.415, 0.425, 1.4625, 0.4725, 1.51, 0.52, 1.5575, 0.5675, 1.6025, 0.6125, 1.65, 0.66, 1.6975, 0.7075, 1.745, 0.755, 1.7925, 0.8025, 1.84, 0.85, 1.8875, 0.8975, 1.9325, 0.9425],
  "SoftwareVersions": "syngo MR E11",
  "SpacingBetweenSlices": 3,
  "StationName": "AWP66061",
  "TaskName": "response",
  "TotalReadoutTime": 0.018975,
  "TxRefAmp": 219.207,
  "dcmmeta_affine": [
    [-2.994896173477173, -0.00365910935215652, 0.17488300800323486, 107.83438110351562],
    [-0.03582732379436493, 2.9485883712768555, -0.5518540740013123, -95.51055908203125],
    [0.17121291160583496, 0.55300372838974, 2.943615674972534, -70.61245727539062],
    [0.0, 0.0, 0.0, 1.0]
],
  "dcmmeta_reorient_transform": [
    [0.0, -1.0, 0.0, 69.0],
    [1.0, 0.0, 0.0, 0.0],
    [0.0, 0.0, -1.0, 41.0],
    [0.0, 0.0, 0.0, 1.0]
],
  "dcmmeta_shape": [70, 70, 42, 341],
  "dcmmeta_slice_dim": 2,
  "dcmmeta_version": 0.6,
  "global": {
    "const": {
      "AcquisitionMatrix": [70, 0, 0, 70],
      "AngioFlag": "N",
      "BitsAllocated": 16,
      "BitsStored": 12,
      "BodyPartExamined": "HEAD",
      "Columns": 490,
      "EchoNumbers": 1,
      "EchoTime": 22.0,
      "EchoTrainLength": 35,
      "FlipAngle": 90.0,
      "HighBit": 11,
      "ImageOrientationPatient": [0.99829869408771, 0.01194244065801, 0.05707096892376, -0.0012197030985, 0.9828627971193, -0.1843345718067],
      "ImagePositionPatient": [-742.91186956482, -712.04332666451, 168.40910944712],
      "ImageType": [
        "ORIGINAL",
        "PRIMARY",
        "M",
        "ND",
        "NORM",
        "MOSAIC"
],
      "ImagedNucleus": "1H",
      "ImagingFrequency": 123.254466,
      "InPlanePhaseEncodingDirection": "COL",
      "MRAcquisitionType": "2D",
      "MagneticFieldStrength": 3.0,
      "Manufacturer": "SIEMENS",
      "ManufacturerModelName": "Prisma",
      "Modality": "MR",
      "NumberOfAverages": 1.0,
      "NumberOfPhaseEncodingSteps": 70,
      "PercentPhaseFieldOfView": 100.0,
      "PercentSampling": 100.0,
      "PerformedProcedureStepStartTime": "105834.233000",
      "PhotometricInterpretation": "MONOCHROME2",
      "PixelBandwidth": 2165.0,
      "PixelRepresentation": 0,
      "PixelSpacing": [3.0, 3.0],
      "ProtocolName": "BOLD_ep2d_3x3x3_response2",
      "RepetitionTime": 2000.0,
      "Rows": 490,
      "SAR": 0.11084686929757,
      "SamplesPerPixel": 1,
      "ScanOptions": "FS",
      "ScanningSequence": "EP",
      "SequenceName": "*epfid2d1_70",
      "SequenceVariant": "SK",
      "SeriesDescription": "BOLD_ep2d_3x3x3_response2",
      "SeriesNumber": 8,
      "SeriesTime": "122101.636000",
      "SliceLocation": 77.570117779374,
      "SliceThickness": 3.0,
      "SmallestImagePixelValue": 0,
      "SoftwareVersions": "syngo MR E11",
      "SpacingBetweenSlices": 2.9999999706205,
      "SpecificCharacterSet": "ISO_IR 100",
      "StudyID": "1",
      "StudyTime": "105834.174000",
      "TransmitCoilName": "Body",
      "VariableFlipAngleFlag": "N",
      "WindowCenterWidthExplanation": "Algo1",
      "dBdt": 0.0},
    "slices": {}
  },
  "time": {
    "samples": {
      "AcquisitionNumber": [1, 2, 3, 4, 5, 6, 7, 8, 9, 10, 11, 12, 13, 14, 15, 16, 17, 18, 19, 20, 21, 22, 23, 24, 25, 26, 27, 28, 29, 30, 31, 32, 33, 34, 35, 36, 37, 38, 39, 40, 41, 42, 43, 44, 45, 46, 47, 48, 49, 50, 51, 52, 53, 54, 55, 56, 57, 58, 59, 60, 61, 62, 63, 64, 65, 66, 67, 68, 69, 70, 71, 72, 73, 74, 75, 76, 77, 78, 79, 80, 81, 82, 83, 84, 85, 86, 87, 88, 89, 90, 91, 92, 93, 94, 95, 96, 97, 98, 99, 100, 101, 102, 103, 104, 105, 106, 107, 108, 109, 110, 111, 112, 113, 114, 115, 116, 117, 118, 119, 120, 121, 122, 123, 124, 125, 126, 127, 128, 129, 130, 131, 132, 133, 134, 135, 136, 137, 138, 139, 140, 141, 142, 143, 144, 145, 146, 147, 148, 149, 150, 151, 152, 153, 154, 155, 156, 157, 158, 159, 160, 161, 162, 163, 164, 165, 166, 167, 168, 169, 170, 171, 172, 173, 174, 175, 176, 177, 178, 179, 180, 181, 182, 183, 184, 185, 186, 187, 188, 189, 190, 191, 192, 193, 194, 195, 196, 197, 198, 199, 200, 201, 202, 203, 204, 205, 206, 207, 208, 209, 210, 211, 212, 213, 214, 215, 216, 217, 218, 219, 220, 221, 222, 223, 224, 225, 226, 227, 228, 229, 230, 231, 232, 233, 234, 235, 236, 237, 238, 239, 240, 241, 242, 243, 244, 245, 246, 247, 248, 249, 250, 251, 252, 253, 254, 255, 256, 257, 258, 259, 260, 261, 262, 263, 264, 265, 266, 267, 268, 269, 270, 271, 272, 273, 274, 275, 276, 277, 278, 279, 280, 281, 282, 283, 284, 285, 286, 287, 288, 289, 290, 291, 292, 293, 294, 295, 296, 297, 298, 299, 300, 301, 302, 303, 304, 305, 306, 307, 308, 309, 310, 311, 312, 313, 314, 315, 316, 317, 318, 319, 320, 321, 322, 323, 324, 325, 326, 327, 328, 329, 330, 331, 332, 333, 334, 335, 336, 337, 338, 339, 340, 341],
      "AcquisitionTime": ["122042.297500", "122044.297500", "122046.297500", "122048.297500", "122050.297500", "122052.297500", "122054.297500", "122056.297500", "122058.297500", "122100.297500", "122102.297500", "122104.297500", "122106.297500", "122108.297500", "122110.297500", "122112.297500", "122114.297500", "122116.297500", "122118.297500", "122120.297500", "122122.297500", "122124.297500", "122126.297500", "122128.297500", "122130.297500", "122132.297500", "122134.297500", "122136.297500", "122138.297500", "122140.297500", "122142.297500", "122144.297500", "122146.297500", "122148.297500", "122150.297500", "122152.297500", "122154.297500", "122156.297500", "122158.297500", "122200.297500", "122202.297500", "122204.297500", "122206.297500", "122208.297500", "122210.297500", "122212.297500", "122214.297500", "122216.297500", "122218.297500", "122220.297500", "122222.297500", "122224.297500", "122226.297500", "122228.297500", "122230.297500", "122232.297500", "122234.297500", "122236.297500", "122238.297500", "122240.297500", "122242.297500", "122244.297500", "122246.297500", "122248.297500", "122250.297500", "122252.297500", "122254.297500", "122256.297500", "122258.297500", "122300.297500", "122302.297500", "122304.297500", "122306.297500", "122308.297500", "122310.297500", "122312.297500", "122314.297500", "122316.297500", "122318.297500", "122320.297500", "122322.297500", "122324.297500", "122326.297500", "122328.297500", "122330.297500", "122332.297500", "122334.297500", "122336.297500", "122338.297500", "122340.297500", "122342.297500", "122344.297500", "122346.297500", "122348.297500", "122350.297500", "122352.297500", "122354.297500", "122356.297500", "122358.297500", "122400.297500", "122402.297500", "122404.297500", "122406.297500", "122408.297500", "122410.297500", "122412.297500", "122414.297500", "122416.297500", "122418.297500", "122420.297500", "122422.297500", "122424.297500", "122426.297500", "122428.297500", "122430.297500", "122432.297500", "122434.297500", "122436.297500", "122438.297500", "122440.297500", "122442.297500", "122444.297500", "122446.297500", "122448.297500", "122450.297500", "122452.297500", "122454.297500", "122456.297500", "122458.297500", "122500.297500", "122502.297500", "122504.297500", "122506.297500", "122508.297500", "122510.297500", "122512.297500", "122514.297500", "122516.297500", "122518.297500", "122520.297500", "122522.297500", "122524.297500", "122526.297500", "122528.297500", "122530.297500", "122532.297500", "122534.297500", "122536.297500", "122538.297500", "122540.297500", "122542.297500", "122544.297500", "122546.297500", "122548.297500", "122550.297500", "122552.297500", "122554.297500", "122556.297500", "122558.297500", "122600.297500", "122602.297500", "122604.297500", "122606.297500", "122608.297500", "122610.297500", "122612.297500", "122614.297500", "122616.297500", "122618.297500", "122620.297500", "122622.297500", "122624.297500", "122626.297500", "122628.297500", "122630.297500", "122632.297500", "122634.297500", "122636.297500", "122638.297500", "122640.297500", "122642.297500", "122644.297500", "122646.297500", "122648.297500", "122650.297500", "122652.297500", "122654.297500", "122656.297500", "122658.297500", "122700.297500", "122702.297500", "122704.297500", "122706.297500", "122708.297500", "122710.297500", "122712.297500", "122714.297500", "122716.297500", "122718.297500", "122720.297500", "122722.297500", "122724.297500", "122726.297500", "122728.297500", "122730.297500", "122732.297500", "122734.297500", "122736.297500", "122738.297500", "122740.297500", "122742.297500", "122744.297500", "122746.297500", "122748.297500", "122750.297500", "122752.297500", "122754.297500", "122756.297500", "122758.297500", "122800.297500", "122802.297500", "122804.297500", "122806.297500", "122808.297500", "122810.297500", "122812.297500", "122814.297500", "122816.297500", "122818.297500", "122820.297500", "122822.297500", "122824.297500", "122826.297500", "122828.297500", "122830.297500", "122832.297500", "122834.297500", "122836.297500", "122838.297500", "122840.297500", "122842.297500", "122844.297500", "122846.297500", "122848.297500", "122850.297500", "122852.297500", "122854.297500", "122856.297500", "122858.297500", "122900.297500", "122902.297500", "122904.297500", "122906.297500", "122908.297500", "122910.297500", "122912.297500", "122914.297500", "122916.297500", "122918.297500", "122920.297500", "122922.297500", "122924.297500", "122926.297500", "122928.297500", "122930.297500", "122932.297500", "122934.297500", "122936.297500", "122938.297500", "122940.297500", "122942.297500", "122944.297500", "122946.297500", "122948.297500", "122950.297500", "122952.297500", "122954.297500", "122956.297500", "122958.297500", "123000.297500", "123002.297500", "123004.297500", "123006.297500", "123008.297500", "123010.297500", "123012.297500", "123014.297500", "123016.297500", "123018.297500", "123020.297500", "123022.297500", "123024.297500", "123026.297500", "123028.297500", "123030.297500", "123032.297500", "123034.297500", "123036.297500", "123038.297500", "123040.297500", "123042.297500", "123044.297500", "123046.297500", "123048.297500", "123050.297500", "123052.297500", "123054.297500", "123056.297500", "123058.297500", "123100.297500", "123102.297500", "123104.297500", "123106.297500", "123108.297500", "123110.297500", "123112.297500", "123114.297500", "123116.297500", "123118.297500", "123120.297500", "123122.297500", "123124.297500", "123126.297500", "123128.297500", "123130.297500", "123132.297500", "123134.297500", "123136.297500", "123138.297500", "123140.297500", "123142.297500", "123144.297500", "123146.297500", "123148.297500", "123150.297500", "123152.297500", "123154.297500", "123156.297500", "123158.297500", "123200.297500", "123202.297500"],
      "ContentTime": ["122101.639000", "122101.643000", "122101.646000", "122101.648000", "122101.651000", "122101.661000", "122101.663000", "122101.666000", "122101.669000", "122141.634000", "122141.645000", "122141.647000", "122141.650000", "122141.653000", "122141.660000", "122141.663000", "122141.666000", "122141.668000", "122141.671000", "122141.674000", "122141.677000", "122141.683000", "122141.686000", "122141.689000", "122141.691000", "122141.694000", "122141.697000", "122141.699000", "122141.702000", "122221.635000", "122221.638000", "122221.640000", "122221.643000", "122221.646000", "122221.648000", "122221.651000", "122221.654000", "122221.657000", "122221.659000", "122221.662000", "122221.671000", "122221.674000", "122221.676000", "122221.679000", "122221.682000", "122221.690000", "122221.692000", "122221.695000", "122221.698000", "122301.635000", "122301.638000", "122301.646000", "122301.649000", "122301.652000", "122301.658000", "122301.661000", "122301.663000", "122301.666000", "122301.669000", "122301.672000", "122301.675000", "122301.677000", "122301.680000", "122301.683000", "122301.686000", "122301.688000", "122301.691000", "122301.694000", "122301.697000", "122341.635000", "122341.645000", "122341.647000", "122341.650000", "122341.653000", "122341.656000", "122341.659000", "122341.661000", "122341.664000", "122341.667000", "122341.670000", "122341.673000", "122341.675000", "122341.678000", "122341.681000", "122341.684000", "122341.687000", "122341.689000", "122341.692000", "122341.695000", "122421.635000", "122421.638000", "122421.640000", "122421.643000", "122421.646000", "122421.649000", "122421.651000", "122421.654000", "122421.657000", "122421.659000", "122421.662000", "122421.665000", "122421.668000", "122421.671000", "122421.673000", "122421.676000", "122421.679000", "122421.681000", "122421.684000", "122421.687000", "122501.635000", "122501.638000", "122501.640000", "122501.643000", "122501.646000", "122501.648000", "122501.660000", "122501.663000", "122501.665000", "122501.668000", "122501.671000", "122501.674000", "122501.676000", "122501.679000", "122501.682000", "122501.684000", "122501.687000", "122501.690000", "122501.693000", "122501.695000", "122541.635000", "122541.638000", "122541.640000", "122541.643000", "122541.646000", "122541.649000", "122541.651000", "122541.654000", "122541.657000", "122541.660000", "122541.662000", "122541.665000", "122541.668000", "122541.670000", "122541.673000", "122541.676000", "122541.679000", "122541.682000", "122541.684000", "122541.687000", "122621.634000", "122621.637000", "122621.639000", "122621.642000", "122621.645000", "122621.648000", "122621.650000", "122621.653000", "122621.656000", "122621.658000", "122621.661000", "122621.664000", "122621.667000", "122621.669000", "122621.672000", "122621.675000", "122621.678000", "122621.680000", "122621.683000", "122621.686000", "122701.635000", "122701.638000", "122701.640000", "122701.643000", "122701.646000", "122701.649000", "122701.651000", "122701.654000", "122701.657000", "122701.660000", "122701.662000", "122701.665000", "122701.668000", "122701.670000", "122701.673000", "122701.676000", "122701.679000", "122701.681000", "122701.701000", "122701.704000", "122741.635000", "122741.638000", "122741.640000", "122741.643000", "122741.646000", "122741.649000", "122741.651000", "122741.654000", "122741.657000", "122741.660000", "122741.662000", "122741.665000", "122741.668000", "122741.671000", "122741.673000", "122741.676000", "122741.679000", "122741.682000", "122741.684000", "122741.687000", "122821.635000", "122821.638000", "122821.640000", "122821.643000", "122821.646000", "122821.649000", "122821.652000", "122821.654000", "122821.657000", "122821.660000", "122821.662000", "122821.665000", "122821.668000", "122821.671000", "122821.674000", "122821.676000", "122821.679000", "122821.682000", "122821.684000", "122821.687000", "122901.635000", "122901.638000", "122901.640000", "122901.643000", "122901.646000", "122901.649000", "122901.651000", "122901.654000", "122901.657000", "122901.660000", "122901.662000", "122901.665000", "122901.668000", "122901.671000", "122901.673000", "122901.676000", "122901.679000", "122901.682000", "122901.684000", "122901.687000", "122941.635000", "122941.638000", "122941.640000", "122941.643000", "122941.646000", "122941.649000", "122941.651000", "122941.654000", "122941.657000", "122941.660000", "122941.662000", "122941.665000", "122941.668000", "122941.670000", "122941.673000", "122941.676000", "122941.679000", "122941.681000", "122941.684000", "122941.687000", "123021.635000", "123021.638000", "123021.641000", "123021.643000", "123021.646000", "123021.649000", "123021.652000", "123021.654000", "123021.657000", "123021.660000", "123021.663000", "123021.665000", "123021.668000", "123021.671000", "123021.674000", "123021.676000", "123021.679000", "123021.682000", "123021.684000", "123021.687000", "123101.634000", "123101.637000", "123101.639000", "123101.642000", "123101.645000", "123101.648000", "123101.651000", "123101.653000", "123101.656000", "123101.659000", "123101.662000", "123101.664000", "123101.667000", "123101.670000", "123101.672000", "123101.675000", "123101.678000", "123101.681000", "123101.683000", "123101.686000", "123141.635000", "123141.638000", "123141.640000", "123141.643000", "123141.646000", "123141.649000", "123141.651000", "123141.654000", "123141.657000", "123141.659000", "123141.662000", "123141.665000", "123141.668000", "123141.670000", "123141.673000", "123141.676000", "123141.679000", "123141.681000", "123141.684000", "123141.687000", "123204.308000", "123204.311000", "123204.314000", "123204.317000", "123204.320000", "123204.322000", "123204.325000", "123204.328000", "123204.331000", "123204.333000", "123204.336000", "123204.344000"],
      "DataSetTrailingPadding": [
        "\u0000\u0000\u0000\u0000\u0000\u0000\u0000\u0000\u0000\u0000\u0000\u0000\u0000\u0000\u0000\u0000\u0000\u0000\u0000\u0000\u0000\u0000\u0000\u0000\u0000\u0000\u0000\u0000\u0000\u0000\u0000\u0000\u0000\u0000\u0000\u0000\u0000\u0000\u0000\u0000\u0000\u0000\u0000\u0000\u0000\u0000\u0000\u0000\u0000\u0000\u0000\u0000\u0000\u0000\u0000\u0000\u0000\u0000\u0000\u0000\u0000\u0000\u0000\u0000\u0000\u0000\u0000\u0000\u0000\u0000\u0000\u0000\u0000\u0000\u0000\u0000\u0000\u0000\u0000\u0000\u0000\u0000\u0000\u0000\u0000\u0000\u0000\u0000\u0000\u0000\u0000\u0000\u0000\u0000\u0000\u0000\u0000\u0000\u0000\u0000\u0000\u0000\u0000\u0000\u0000\u0000\u0000\u0000\u0000\u0000\u0000\u0000\u0000\u0000\u0000\u0000\u0000\u0000\u0000\u0000\u0000\u0000\u0000\u0000\u0000\u0000\u0000\u0000\u0000\u0000\u0000\u0000\u0000\u0000\u0000\u0000\u0000\u0000\u0000\u0000\u0000\u0000\u0000\u0000\u0000\u0000\u0000\u0000\u0000\u0000\u0000\u0000\u0000\u0000\u0000\u0000\u0000\u0000\u0000\u0000\u0000\u0000\u0000\u0000\u0000\u0000\u0000\u0000\u0000\u0000",
        "\u0000\u0000\u0000\u0000\u0000\u0000\u0000\u0000\u0000\u0000\u0000\u0000\u0000\u0000\u0000\u0000\u0000\u0000\u0000\u0000\u0000\u0000\u0000\u0000\u0000\u0000\u0000\u0000\u0000\u0000\u0000\u0000\u0000\u0000\u0000\u0000\u0000\u0000\u0000\u0000\u0000\u0000\u0000\u0000\u0000\u0000\u0000\u0000\u0000\u0000\u0000\u0000\u0000\u0000\u0000\u0000\u0000\u0000\u0000\u0000\u0000\u0000\u0000\u0000\u0000\u0000\u0000\u0000\u0000\u0000\u0000\u0000\u0000\u0000\u0000\u0000\u0000\u0000\u0000\u0000\u0000\u0000\u0000\u0000\u0000\u0000\u0000\u0000\u0000\u0000\u0000\u0000\u0000\u0000\u0000\u0000\u0000\u0000\u0000\u0000\u0000\u0000\u0000\u0000\u0000\u0000\u0000\u0000\u0000\u0000\u0000\u0000\u0000\u0000\u0000\u0000\u0000\u0000\u0000\u0000\u0000\u0000\u0000\u0000\u0000\u0000\u0000\u0000\u0000\u0000\u0000\u0000\u0000\u0000\u0000\u0000\u0000\u0000\u0000\u0000\u0000\u0000\u0000\u0000\u0000\u0000\u0000\u0000\u0000\u0000\u0000\u0000\u0000\u0000\u0000\u0000\u0000\u0000\u0000\u0000\u0000\u0000\u0000\u0000\u0000\u0000\u0000\u0000\u0000\u0000",
        "\u0000\u0000\u0000\u0000\u0000\u0000\u0000\u0000\u0000\u0000\u0000\u0000\u0000\u0000\u0000\u0000\u0000\u0000\u0000\u0000\u0000\u0000\u0000\u0000\u0000\u0000\u0000\u0000\u0000\u0000\u0000\u0000\u0000\u0000\u0000\u0000\u0000\u0000\u0000\u0000\u0000\u0000\u0000\u0000\u0000\u0000\u0000\u0000\u0000\u0000\u0000\u0000\u0000\u0000\u0000\u0000\u0000\u0000\u0000\u0000\u0000\u0000\u0000\u0000\u0000\u0000\u0000\u0000\u0000\u0000\u0000\u0000\u0000\u0000\u0000\u0000\u0000\u0000\u0000\u0000\u0000\u0000\u0000\u0000\u0000\u0000\u0000\u0000\u0000\u0000\u0000\u0000\u0000\u0000\u0000\u0000\u0000\u0000\u0000\u0000\u0000\u0000\u0000\u0000\u0000\u0000\u0000\u0000\u0000\u0000\u0000\u0000\u0000\u0000\u0000\u0000\u0000\u0000\u0000\u0000\u0000\u0000\u0000\u0000\u0000\u0000\u0000\u0000\u0000\u0000\u0000\u0000\u0000\u0000\u0000\u0000\u0000\u0000\u0000\u0000\u0000\u0000\u0000\u0000\u0000\u0000\u0000\u0000\u0000\u0000\u0000\u0000\u0000\u0000\u0000\u0000\u0000\u0000\u0000\u0000\u0000\u0000\u0000\u0000\u0000\u0000\u0000\u0000\u0000\u0000",
        "\u0000\u0000\u0000\u0000\u0000\u0000\u0000\u0000\u0000\u0000\u0000\u0000\u0000\u0000\u0000\u0000\u0000\u0000\u0000\u0000\u0000\u0000\u0000\u0000\u0000\u0000\u0000\u0000\u0000\u0000\u0000\u0000\u0000\u0000\u0000\u0000\u0000\u0000\u0000\u0000\u0000\u0000\u0000\u0000\u0000\u0000\u0000\u0000\u0000\u0000\u0000\u0000\u0000\u0000\u0000\u0000\u0000\u0000\u0000\u0000\u0000\u0000\u0000\u0000\u0000\u0000\u0000\u0000\u0000\u0000\u0000\u0000\u0000\u0000\u0000\u0000\u0000\u0000\u0000\u0000\u0000\u0000\u0000\u0000\u0000\u0000\u0000\u0000\u0000\u0000\u0000\u0000\u0000\u0000\u0000\u0000\u0000\u0000\u0000\u0000\u0000\u0000\u0000\u0000\u0000\u0000\u0000\u0000\u0000\u0000\u0000\u0000\u0000\u0000\u0000\u0000\u0000\u0000\u0000\u0000\u0000\u0000\u0000\u0000\u0000\u0000\u0000\u0000\u0000\u0000\u0000\u0000\u0000\u0000\u0000\u0000\u0000\u0000\u0000\u0000\u0000\u0000\u0000\u0000\u0000\u0000\u0000\u0000\u0000\u0000\u0000\u0000\u0000\u0000\u0000\u0000\u0000\u0000\u0000\u0000\u0000\u0000\u0000\u0000\u0000\u0000\u0000\u0000\u0000\u0000",
        "\u0000\u0000\u0000\u0000\u0000\u0000\u0000\u0000\u0000\u0000\u0000\u0000\u0000\u0000\u0000\u0000\u0000\u0000\u0000\u0000\u0000\u0000\u0000\u0000\u0000\u0000\u0000\u0000\u0000\u0000\u0000\u0000\u0000\u0000\u0000\u0000\u0000\u0000\u0000\u0000\u0000\u0000\u0000\u0000\u0000\u0000\u0000\u0000\u0000\u0000\u0000\u0000\u0000\u0000\u0000\u0000\u0000\u0000\u0000\u0000\u0000\u0000\u0000\u0000\u0000\u0000\u0000\u0000\u0000\u0000\u0000\u0000\u0000\u0000\u0000\u0000\u0000\u0000\u0000\u0000\u0000\u0000\u0000\u0000\u0000\u0000\u0000\u0000\u0000\u0000\u0000\u0000\u0000\u0000\u0000\u0000\u0000\u0000\u0000\u0000\u0000\u0000\u0000\u0000\u0000\u0000\u0000\u0000\u0000\u0000\u0000\u0000\u0000\u0000\u0000\u0000\u0000\u0000\u0000\u0000\u0000\u0000\u0000\u0000\u0000\u0000\u0000\u0000\u0000\u0000\u0000\u0000\u0000\u0000\u0000\u0000\u0000\u0000\u0000\u0000\u0000\u0000\u0000\u0000\u0000\u0000\u0000\u0000\u0000\u0000\u0000\u0000\u0000\u0000\u0000\u0000\u0000\u0000\u0000\u0000\u0000\u0000\u0000\u0000\u0000\u0000\u0000\u0000",
        "\u0000\u0000\u0000\u0000\u0000\u0000\u0000\u0000\u0000\u0000\u0000\u0000\u0000\u0000\u0000\u0000\u0000\u0000\u0000\u0000\u0000\u0000\u0000\u0000\u0000\u0000\u0000\u0000\u0000\u0000\u0000\u0000\u0000\u0000\u0000\u0000\u0000\u0000\u0000\u0000\u0000\u0000\u0000\u0000\u0000\u0000\u0000\u0000\u0000\u0000\u0000\u0000\u0000\u0000\u0000\u0000\u0000\u0000\u0000\u0000\u0000\u0000\u0000\u0000\u0000\u0000\u0000\u0000\u0000\u0000\u0000\u0000\u0000\u0000\u0000\u0000\u0000\u0000\u0000\u0000\u0000\u0000\u0000\u0000\u0000\u0000\u0000\u0000\u0000\u0000\u0000\u0000\u0000\u0000\u0000\u0000\u0000\u0000\u0000\u0000\u0000\u0000\u0000\u0000\u0000\u0000\u0000\u0000\u0000\u0000\u0000\u0000\u0000\u0000\u0000\u0000\u0000\u0000\u0000\u0000\u0000\u0000\u0000\u0000\u0000\u0000\u0000\u0000\u0000\u0000\u0000\u0000\u0000\u0000\u0000\u0000\u0000\u0000\u0000\u0000\u0000\u0000\u0000\u0000\u0000\u0000\u0000\u0000\u0000\u0000\u0000\u0000\u0000\u0000\u0000\u0000\u0000\u0000\u0000\u0000\u0000\u0000\u0000\u0000\u0000\u0000\u0000\u0000",
        "\u0000\u0000\u0000\u0000\u0000\u0000\u0000\u0000\u0000\u0000\u0000\u0000\u0000\u0000\u0000\u0000\u0000\u0000\u0000\u0000\u0000\u0000\u0000\u0000\u0000\u0000\u0000\u0000\u0000\u0000\u0000\u0000\u0000\u0000\u0000\u0000\u0000\u0000\u0000\u0000\u0000\u0000\u0000\u0000\u0000\u0000\u0000\u0000\u0000\u0000\u0000\u0000\u0000\u0000\u0000\u0000\u0000\u0000\u0000\u0000\u0000\u0000\u0000\u0000\u0000\u0000\u0000\u0000\u0000\u0000\u0000\u0000\u0000\u0000\u0000\u0000\u0000\u0000\u0000\u0000\u0000\u0000\u0000\u0000\u0000\u0000\u0000\u0000\u0000\u0000\u0000\u0000\u0000\u0000\u0000\u0000\u0000\u0000\u0000\u0000\u0000\u0000\u0000\u0000\u0000\u0000\u0000\u0000\u0000\u0000\u0000\u0000\u0000\u0000\u0000\u0000\u0000\u0000\u0000\u0000\u0000\u0000\u0000\u0000\u0000\u0000\u0000\u0000\u0000\u0000\u0000\u0000\u0000\u0000\u0000\u0000\u0000\u0000\u0000\u0000\u0000\u0000\u0000\u0000\u0000\u0000\u0000\u0000\u0000\u0000\u0000\u0000\u0000\u0000\u0000\u0000\u0000\u0000\u0000\u0000\u0000\u0000\u0000\u0000\u0000\u0000\u0000\u0000",
        "\u0000\u0000\u0000\u0000\u0000\u0000\u0000\u0000\u0000\u0000\u0000\u0000\u0000\u0000\u0000\u0000\u0000\u0000\u0000\u0000\u0000\u0000\u0000\u0000\u0000\u0000\u0000\u0000\u0000\u0000\u0000\u0000\u0000\u0000\u0000\u0000\u0000\u0000\u0000\u0000\u0000\u0000\u0000\u0000\u0000\u0000\u0000\u0000\u0000\u0000\u0000\u0000\u0000\u0000\u0000\u0000\u0000\u0000\u0000\u0000\u0000\u0000\u0000\u0000\u0000\u0000\u0000\u0000\u0000\u0000\u0000\u0000\u0000\u0000\u0000\u0000\u0000\u0000\u0000\u0000\u0000\u0000\u0000\u0000\u0000\u0000\u0000\u0000\u0000\u0000\u0000\u0000\u0000\u0000\u0000\u0000\u0000\u0000\u0000\u0000\u0000\u0000\u0000\u0000\u0000\u0000\u0000\u0000\u0000\u0000\u0000\u0000\u0000\u0000\u0000\u0000\u0000\u0000\u0000\u0000\u0000\u0000\u0000\u0000\u0000\u0000\u0000\u0000\u0000\u0000\u0000\u0000\u0000\u0000\u0000\u0000\u0000\u0000\u0000\u0000\u0000\u0000\u0000\u0000\u0000\u0000\u0000\u0000\u0000\u0000\u0000\u0000\u0000\u0000\u0000\u0000\u0000\u0000\u0000\u0000\u0000\u0000\u0000\u0000\u0000\u0000\u0000\u0000",
        "\u0000\u0000\u0000\u0000\u0000\u0000\u0000\u0000\u0000\u0000\u0000\u0000\u0000\u0000\u0000\u0000\u0000\u0000\u0000\u0000\u0000\u0000\u0000\u0000\u0000\u0000\u0000\u0000\u0000\u0000\u0000\u0000\u0000\u0000\u0000\u0000\u0000\u0000\u0000\u0000\u0000\u0000\u0000\u0000\u0000\u0000\u0000\u0000\u0000\u0000\u0000\u0000\u0000\u0000\u0000\u0000\u0000\u0000\u0000\u0000\u0000\u0000\u0000\u0000\u0000\u0000\u0000\u0000\u0000\u0000\u0000\u0000\u0000\u0000\u0000\u0000\u0000\u0000\u0000\u0000\u0000\u0000\u0000\u0000\u0000\u0000\u0000\u0000\u0000\u0000\u0000\u0000\u0000\u0000\u0000\u0000\u0000\u0000\u0000\u0000\u0000\u0000\u0000\u0000\u0000\u0000\u0000\u0000\u0000\u0000\u0000\u0000\u0000\u0000\u0000\u0000\u0000\u0000\u0000\u0000\u0000\u0000\u0000\u0000\u0000\u0000\u0000\u0000\u0000\u0000\u0000\u0000\u0000\u0000\u0000\u0000\u0000\u0000\u0000\u0000\u0000\u0000\u0000\u0000\u0000\u0000\u0000\u0000\u0000\u0000\u0000\u0000\u0000\u0000\u0000\u0000\u0000\u0000\u0000\u0000\u0000\u0000\u0000\u0000\u0000\u0000\u0000\u0000",
        "\u0000\u0000\u0000\u0000\u0000\u0000\u0000\u0000\u0000\u0000\u0000\u0000\u0000\u0000\u0000\u0000\u0000\u0000\u0000\u0000\u0000\u0000\u0000\u0000\u0000\u0000\u0000\u0000\u0000\u0000\u0000\u0000\u0000\u0000\u0000\u0000\u0000\u0000\u0000\u0000\u0000\u0000\u0000\u0000\u0000\u0000\u0000\u0000\u0000\u0000\u0000\u0000\u0000\u0000\u0000\u0000\u0000\u0000\u0000\u0000\u0000\u0000\u0000\u0000\u0000\u0000\u0000\u0000\u0000\u0000\u0000\u0000\u0000\u0000\u0000\u0000\u0000\u0000\u0000\u0000\u0000\u0000\u0000\u0000\u0000\u0000\u0000\u0000\u0000\u0000\u0000\u0000\u0000\u0000\u0000\u0000\u0000\u0000\u0000\u0000\u0000\u0000\u0000\u0000\u0000\u0000\u0000\u0000\u0000\u0000\u0000\u0000\u0000\u0000\u0000\u0000\u0000\u0000\u0000\u0000\u0000\u0000\u0000\u0000\u0000\u0000\u0000\u0000\u0000\u0000\u0000\u0000\u0000\u0000\u0000\u0000\u0000\u0000\u0000\u0000\u0000\u0000\u0000\u0000\u0000\u0000\u0000\u0000\u0000\u0000\u0000\u0000\u0000\u0000\u0000\u0000\u0000\u0000\u0000\u0000\u0000\u0000\u0000\u0000",
        "\u0000\u0000\u0000\u0000\u0000\u0000\u0000\u0000\u0000\u0000\u0000\u0000\u0000\u0000\u0000\u0000\u0000\u0000\u0000\u0000\u0000\u0000\u0000\u0000\u0000\u0000\u0000\u0000\u0000\u0000\u0000\u0000\u0000\u0000\u0000\u0000\u0000\u0000\u0000\u0000\u0000\u0000\u0000\u0000\u0000\u0000\u0000\u0000\u0000\u0000\u0000\u0000\u0000\u0000\u0000\u0000\u0000\u0000\u0000\u0000\u0000\u0000\u0000\u0000\u0000\u0000\u0000\u0000\u0000\u0000\u0000\u0000\u0000\u0000\u0000\u0000\u0000\u0000\u0000\u0000\u0000\u0000\u0000\u0000\u0000\u0000\u0000\u0000\u0000\u0000\u0000\u0000\u0000\u0000\u0000\u0000\u0000\u0000\u0000\u0000\u0000\u0000\u0000\u0000\u0000\u0000\u0000\u0000\u0000\u0000\u0000\u0000\u0000\u0000\u0000\u0000\u0000\u0000\u0000\u0000\u0000\u0000\u0000\u0000\u0000\u0000\u0000\u0000\u0000\u0000\u0000\u0000\u0000\u0000\u0000\u0000\u0000\u0000\u0000\u0000\u0000\u0000\u0000\u0000\u0000\u0000\u0000\u0000\u0000\u0000\u0000\u0000\u0000\u0000\u0000\u0000\u0000\u0000\u0000\u0000\u0000\u0000\u0000\u0000",
