{
  "AcquisitionMatrixPE": 70,
  "AcquisitionNumber": 1,
  "AcquisitionTime": "12:08:13.880000",
  "BandwidthPerPixelPhaseEncode": 51.948,
  "BaseResolution": 70,
  "BodyPartExamined": "HEAD",
  "CoilCombinationMethod": "Sum of Squares",
  "ConsistencyInfo": "N4_VE11C_LATEST_20160120",
  "ConversionSoftware": "dcm2niix",
  "ConversionSoftwareVersion": "v1.0.20220720",
  "DerivedVendorReportedEchoSpacing": 0.000550001,
  "DeviceSerialNumber": "66061",
  "DwellTime": 3.3e-06,
  "EchoTime": 0.022,
  "EchoTrainLength": 35,
  "EffectiveEchoSpacing": 0.000275,
  "FlipAngle": 90,
  "HeudiconvVersion": "1.1.1",
  "ImageOrientationPatientDICOM": [0.998299, 0.0119424, 0.057071, -0.0012197, 0.982863, -0.184335],
  "ImageOrientationText": "Tra>Cor(-10.6)>Sag(3.3)",
  "ImageType": [
    "ORIGINAL",
    "PRIMARY",
    "M",
    "ND",
    "NORM",
    "MOSAIC"
],
  "ImagingFrequency": 123.254,
  "InPlanePhaseEncodingDirectionDICOM": "COL",
  "InstitutionAddress": "Street StreetNo,City/1c4204/,District,KR,ZIP",
  "InstitutionName": "SKKU",
  "InstitutionalDepartmentName": "Department",
  "MRAcquisitionType": "2D",
  "MagneticFieldStrength": 3,
  "Manufacturer": "Siemens",
  "ManufacturersModelName": "Prisma",
  "MatrixCoilMode": "GRAPPA",
  "Modality": "MR",
  "NonlinearGradientCorrection": false,
  "ParallelReductionFactorInPlane": 2,
  "PartialFourier": 1,
  "PatientPosition": "HFS",
  "PercentPhaseFOV": 100,
  "PercentSampling": 100,
  "PhaseEncodingDirection": "j-",
  "PhaseEncodingSteps": 70,
  "PhaseResolution": 1,
  "PixelBandwidth": 2165,
  "ProcedureStepDescription": "Head^PI:Others",
  "ProtocolName": "BOLD_ep2d_3x3x3_response1",
  "PulseSequenceDetails": "%SiemensSeq%\\ep2d_pace",
  "ReceiveCoilActiveElements": "HC1-7",
  "ReceiveCoilName": "HeadNeck_64",
  "ReconMatrixPE": 70,
  "RefLinesPE": 24,
  "RepetitionTime": 2,
  "SAR": 0.110847,
  "ScanOptions": "FS",
  "ScanningSequence": "EP",
  "SequenceName": "*epfid2d1_70",
  "SequenceVariant": "SK",
  "SeriesDescription": "BOLD_ep2d_3x3x3_response1",
  "SeriesNumber": 7,
  "ShimSetting": [5061, 3719, 4506, 436, 0, 46, -44, 58],
  "SliceThickness": 3,
  "SliceTiming": [0.99, 0, 1.035, 0.0475, 1.0825, 0.0925, 1.13, 0.14, 1.1775, 0.1875, 1.225, 0.235, 1.2725, 0.2825, 1.32, 0.33, 1.365, 0.375, 1.4125, 0.4225, 1.46, 0.47, 1.5075, 0.5175, 1.555, 0.565, 1.6025, 0.6125, 1.65, 0.66, 1.695, 0.705, 1.7425, 0.7525, 1.79, 0.8, 1.8375, 0.8475, 1.885, 0.895, 1.9325, 0.9425],
  "SoftwareVersions": "syngo MR E11",
  "SpacingBetweenSlices": 3,
  "StationName": "AWP66061",
  "TaskName": "response",
  "TotalReadoutTime": 0.018975,
  "TxRefAmp": 219.207,
  "dcmmeta_affine": [
    [-2.994896173477173, -0.00365910935215652, 0.17488300800323486, 107.83438110351562],
    [-0.03582732379436493, 2.9485883712768555, -0.5518540740013123, -95.51055908203125],
    [0.17121291160583496, 0.55300372838974, 2.943615674972534, -70.61245727539062],
    [0.0, 0.0, 0.0, 1.0]
],
  "dcmmeta_reorient_transform": [
    [0.0, -1.0, 0.0, 69.0],
    [1.0, 0.0, 0.0, 0.0],
    [0.0, 0.0, -1.0, 41.0],
    [0.0, 0.0, 0.0, 1.0]
],
  "dcmmeta_shape": [70, 70, 42, 341],
  "dcmmeta_slice_dim": 2,
  "dcmmeta_version": 0.6,
  "global": {
    "const": {
      "AcquisitionMatrix": [70, 0, 0, 70],
      "AngioFlag": "N",
      "BitsAllocated": 16,
      "BitsStored": 12,
      "BodyPartExamined": "HEAD",
      "Columns": 490,
      "EchoNumbers": 1,
      "EchoTime": 22.0,
      "EchoTrainLength": 35,
      "FlipAngle": 90.0,
      "HighBit": 11,
      "ImageOrientationPatient": [0.99829869408771, 0.01194244065801, 0.05707096892376, -0.0012197030985, 0.9828627971193, -0.1843345718067],
      "ImagePositionPatient": [-742.91186956482, -712.04332666451, 168.40910944712],
      "ImageType": [
        "ORIGINAL",
        "PRIMARY",
        "M",
        "ND",
        "NORM",
        "MOSAIC"
],
      "ImagedNucleus": "1H",
      "ImagingFrequency": 123.254464,
      "InPlanePhaseEncodingDirection": "COL",
      "MRAcquisitionType": "2D",
      "MagneticFieldStrength": 3.0,
      "Manufacturer": "SIEMENS",
      "ManufacturerModelName": "Prisma",
      "Modality": "MR",
      "NumberOfAverages": 1.0,
      "NumberOfPhaseEncodingSteps": 70,
      "PercentPhaseFieldOfView": 100.0,
      "PercentSampling": 100.0,
      "PerformedProcedureStepStartTime": "105834.233000",
      "PhotometricInterpretation": "MONOCHROME2",
      "PixelBandwidth": 2165.0,
      "PixelRepresentation": 0,
      "PixelSpacing": [3.0, 3.0],
      "ProtocolName": "BOLD_ep2d_3x3x3_response1",
      "RepetitionTime": 2000.0,
      "Rows": 490,
      "SAR": 0.11084686929757,
      "SamplesPerPixel": 1,
      "ScanOptions": "FS",
      "ScanningSequence": "EP",
      "SequenceName": "*epfid2d1_70",
      "SequenceVariant": "SK",
      "SeriesDescription": "BOLD_ep2d_3x3x3_response1",
      "SeriesNumber": 7,
      "SeriesTime": "120912.148000",
      "SliceLocation": 77.570117779374,
      "SliceThickness": 3.0,
      "SmallestImagePixelValue": 0,
      "SoftwareVersions": "syngo MR E11",
      "SpacingBetweenSlices": 2.9999999706205,
      "SpecificCharacterSet": "ISO_IR 100",
      "StudyID": "1",
      "StudyTime": "105834.174000",
      "TransmitCoilName": "Body",
      "VariableFlipAngleFlag": "N",
      "WindowCenterWidthExplanation": "Algo1",
      "dBdt": 0.0},
    "slices": {}
  },
  "time": {
    "samples": {
      "AcquisitionNumber": [1, 2, 3, 4, 5, 6, 7, 8, 9, 10, 11, 12, 13, 14, 15, 16, 17, 18, 19, 20, 21, 22, 23, 24, 25, 26, 27, 28, 29, 30, 31, 32, 33, 34, 35, 36, 37, 38, 39, 40, 41, 42, 43, 44, 45, 46, 47, 48, 49, 50, 51, 52, 53, 54, 55, 56, 57, 58, 59, 60, 61, 62, 63, 64, 65, 66, 67, 68, 69, 70, 71, 72, 73, 74, 75, 76, 77, 78, 79, 80, 81, 82, 83, 84, 85, 86, 87, 88, 89, 90, 91, 92, 93, 94, 95, 96, 97, 98, 99, 100, 101, 102, 103, 104, 105, 106, 107, 108, 109, 110, 111, 112, 113, 114, 115, 116, 117, 118, 119, 120, 121, 122, 123, 124, 125, 126, 127, 128, 129, 130, 131, 132, 133, 134, 135, 136, 137, 138, 139, 140, 141, 142, 143, 144, 145, 146, 147, 148, 149, 150, 151, 152, 153, 154, 155, 156, 157, 158, 159, 160, 161, 162, 163, 164, 165, 166, 167, 168, 169, 170, 171, 172, 173, 174, 175, 176, 177, 178, 179, 180, 181, 182, 183, 184, 185, 186, 187, 188, 189, 190, 191, 192, 193, 194, 195, 196, 197, 198, 199, 200, 201, 202, 203, 204, 205, 206, 207, 208, 209, 210, 211, 212, 213, 214, 215, 216, 217, 218, 219, 220, 221, 222, 223, 224, 225, 226, 227, 228, 229, 230, 231, 232, 233, 234, 235, 236, 237, 238, 239, 240, 241, 242, 243, 244, 245, 246, 247, 248, 249, 250, 251, 252, 253, 254, 255, 256, 257, 258, 259, 260, 261, 262, 263, 264, 265, 266, 267, 268, 269, 270, 271, 272, 273, 274, 275, 276, 277, 278, 279, 280, 281, 282, 283, 284, 285, 286, 287, 288, 289, 290, 291, 292, 293, 294, 295, 296, 297, 298, 299, 300, 301, 302, 303, 304, 305, 306, 307, 308, 309, 310, 311, 312, 313, 314, 315, 316, 317, 318, 319, 320, 321, 322, 323, 324, 325, 326, 327, 328, 329, 330, 331, 332, 333, 334, 335, 336, 337, 338, 339, 340, 341],
      "AcquisitionTime": ["120813.880000", "120815.880000", "120817.880000", "120819.880000", "120821.880000", "120823.880000", "120825.880000", "120827.880000", "120829.880000", "120831.880000", "120833.880000", "120835.880000", "120837.880000", "120839.880000", "120841.880000", "120843.880000", "120845.880000", "120847.880000", "120849.880000", "120851.880000", "120853.880000", "120855.880000", "120857.880000", "120859.880000", "120901.880000", "120903.880000", "120905.880000", "120907.880000", "120909.880000", "120911.880000", "120913.880000", "120915.880000", "120917.880000", "120919.880000", "120921.880000", "120923.880000", "120925.880000", "120927.880000", "120929.880000", "120931.880000", "120933.880000", "120935.880000", "120937.880000", "120939.880000", "120941.880000", "120943.880000", "120945.880000", "120947.880000", "120949.880000", "120951.880000", "120953.880000", "120955.880000", "120957.880000", "120959.880000", "121001.880000", "121003.880000", "121005.880000", "121007.880000", "121009.880000", "121011.880000", "121013.880000", "121015.880000", "121017.880000", "121019.880000", "121021.880000", "121023.880000", "121025.880000", "121027.880000", "121029.880000", "121031.880000", "121033.880000", "121035.880000", "121037.880000", "121039.880000", "121041.880000", "121043.880000", "121045.880000", "121047.880000", "121049.880000", "121051.880000", "121053.880000", "121055.880000", "121057.880000", "121059.880000", "121101.880000", "121103.880000", "121105.880000", "121107.880000", "121109.880000", "121111.880000", "121113.880000", "121115.880000", "121117.880000", "121119.880000", "121121.880000", "121123.880000", "121125.880000", "121127.880000", "121129.880000", "121131.880000", "121133.880000", "121135.880000", "121137.880000", "121139.880000", "121141.880000", "121143.880000", "121145.880000", "121147.880000", "121149.880000", "121151.880000", "121153.880000", "121155.880000", "121157.880000", "121159.880000", "121201.880000", "121203.880000", "121205.880000", "121207.880000", "121209.880000", "121211.880000", "121213.880000", "121215.880000", "121217.880000", "121219.880000", "121221.880000", "121223.880000", "121225.880000", "121227.880000", "121229.880000", "121231.880000", "121233.880000", "121235.880000", "121237.880000", "121239.880000", "121241.880000", "121243.880000", "121245.880000", "121247.880000", "121249.880000", "121251.880000", "121253.880000", "121255.880000", "121257.880000", "121259.880000", "121301.880000", "121303.880000", "121305.880000", "121307.880000", "121309.880000", "121311.880000", "121313.880000", "121315.880000", "121317.880000", "121319.880000", "121321.880000", "121323.880000", "121325.880000", "121327.880000", "121329.880000", "121331.880000", "121333.880000", "121335.880000", "121337.880000", "121339.880000", "121341.880000", "121343.880000", "121345.880000", "121347.880000", "121349.880000", "121351.880000", "121353.880000", "121355.880000", "121357.880000", "121359.880000", "121401.880000", "121403.880000", "121405.880000", "121407.880000", "121409.880000", "121411.880000", "121413.880000", "121415.880000", "121417.880000", "121419.880000", "121421.880000", "121423.880000", "121425.880000", "121427.880000", "121429.880000", "121431.880000", "121433.880000", "121435.880000", "121437.880000", "121439.880000", "121441.880000", "121443.880000", "121445.880000", "121447.880000", "121449.880000", "121451.880000", "121453.880000", "121455.880000", "121457.880000", "121459.880000", "121501.880000", "121503.880000", "121505.880000", "121507.880000", "121509.880000", "121511.880000", "121513.880000", "121515.880000", "121517.880000", "121519.880000", "121521.880000", "121523.880000", "121525.880000", "121527.880000", "121529.880000", "121531.880000", "121533.880000", "121535.880000", "121537.880000", "121539.880000", "121541.880000", "121543.880000", "121545.880000", "121547.880000", "121549.880000", "121551.880000", "121553.880000", "121555.880000", "121557.880000", "121559.880000", "121601.880000", "121603.880000", "121605.880000", "121607.880000", "121609.880000", "121611.880000", "121613.880000", "121615.880000", "121617.880000", "121619.880000", "121621.880000", "121623.880000", "121625.880000", "121627.880000", "121629.880000", "121631.880000", "121633.880000", "121635.880000", "121637.880000", "121639.880000", "121641.880000", "121643.880000", "121645.880000", "121647.880000", "121649.880000", "121651.880000", "121653.880000", "121655.880000", "121657.880000", "121659.880000", "121701.880000", "121703.880000", "121705.880000", "121707.880000", "121709.880000", "121711.880000", "121713.880000", "121715.880000", "121717.880000", "121719.880000", "121721.880000", "121723.880000", "121725.880000", "121727.880000", "121729.880000", "121731.880000", "121733.880000", "121735.880000", "121737.880000", "121739.880000", "121741.880000", "121743.880000", "121745.880000", "121747.880000", "121749.880000", "121751.880000", "121753.880000", "121755.880000", "121757.880000", "121759.880000", "121801.880000", "121803.880000", "121805.880000", "121807.880000", "121809.880000", "121811.880000", "121813.880000", "121815.880000", "121817.880000", "121819.880000", "121821.880000", "121823.880000", "121825.880000", "121827.880000", "121829.880000", "121831.880000", "121833.880000", "121835.880000", "121837.880000", "121839.880000", "121841.880000", "121843.880000", "121845.880000", "121847.880000", "121849.880000", "121851.880000", "121853.880000", "121855.880000", "121857.880000", "121859.880000", "121901.880000", "121903.880000", "121905.880000", "121907.880000", "121909.880000", "121911.880000", "121913.880000", "121915.880000", "121917.880000", "121919.880000", "121921.880000", "121923.880000", "121925.880000", "121927.880000", "121929.880000", "121931.880000", "121933.880000"],
      "ContentTime": ["120912.151000", "120912.155000", "120912.158000", "120912.161000", "120912.170000", "120912.173000", "120912.176000", "120912.179000", "120912.181000", "120912.184000", "120912.187000", "120912.190000", "120912.192000", "120912.195000", "120912.198000", "120912.201000", "120912.203000", "120912.206000", "120912.209000", "120912.212000", "120912.214000", "120912.217000", "120912.220000", "120912.223000", "120912.225000", "120912.228000", "120912.231000", "120912.234000", "120912.236000", "120952.147000", "120952.150000", "120952.152000", "120952.155000", "120952.158000", "120952.161000", "120952.163000", "120952.166000", "120952.169000", "120952.172000", "120952.174000", "120952.177000", "120952.184000", "120952.187000", "120952.190000", "120952.193000", "120952.195000", "120952.198000", "120952.201000", "120952.204000", "121032.147000", "121032.150000", "121032.152000", "121032.155000", "121032.158000", "121032.161000", "121032.164000", "121032.166000", "121032.169000", "121032.172000", "121032.175000", "121032.177000", "121032.180000", "121032.183000", "121032.186000", "121032.188000", "121032.198000", "121032.200000", "121032.203000", "121032.206000", "121112.146000", "121112.149000", "121112.151000", "121112.158000", "121112.161000", "121112.164000", "121112.167000", "121112.169000", "121112.172000", "121112.175000", "121112.178000", "121112.181000", "121112.184000", "121112.186000", "121112.189000", "121112.192000", "121112.217000", "121112.219000", "121112.222000", "121112.225000", "121152.147000", "121152.150000", "121152.152000", "121152.155000", "121152.158000", "121152.161000", "121152.163000", "121152.166000", "121152.169000", "121152.172000", "121152.174000", "121152.177000", "121152.180000", "121152.183000", "121152.192000", "121152.195000", "121152.197000", "121152.200000", "121152.203000", "121152.206000", "121232.147000", "121232.150000", "121232.152000", "121232.155000", "121232.158000", "121232.167000", "121232.170000", "121232.173000", "121232.175000", "121232.178000", "121232.181000", "121232.184000", "121232.187000", "121232.189000", "121232.192000", "121232.195000", "121232.198000", "121232.200000", "121232.203000", "121232.206000", "121312.147000", "121312.150000", "121312.152000", "121312.160000", "121312.163000", "121312.165000", "121312.168000", "121312.171000", "121312.174000", "121312.177000", "121312.180000", "121312.183000", "121312.185000", "121312.188000", "121312.191000", "121312.194000", "121312.197000", "121312.199000", "121312.202000", "121312.205000", "121352.147000", "121352.154000", "121352.156000", "121352.159000", "121352.162000", "121352.165000", "121352.167000", "121352.171000", "121352.173000", "121352.176000", "121352.179000", "121352.182000", "121352.185000", "121352.187000", "121352.190000", "121352.193000", "121352.196000", "121352.199000", "121352.201000", "121352.204000", "121432.147000", "121432.150000", "121432.153000", "121432.156000", "121432.159000", "121432.161000", "121432.164000", "121432.167000", "121432.170000", "121432.181000", "121432.184000", "121432.186000", "121432.189000", "121432.192000", "121432.195000", "121432.198000", "121432.200000", "121432.203000", "121432.206000", "121432.209000", "121512.147000", "121512.150000", "121512.152000", "121512.155000", "121512.158000", "121512.160000", "121512.163000", "121512.166000", "121512.169000", "121512.172000", "121512.174000", "121512.177000", "121512.180000", "121512.182000", "121512.185000", "121512.188000", "121512.191000", "121512.193000", "121512.196000", "121512.199000", "121552.146000", "121552.149000", "121552.151000", "121552.154000", "121552.157000", "121552.160000", "121552.162000", "121552.165000", "121552.168000", "121552.170000", "121552.173000", "121552.176000", "121552.179000", "121552.182000", "121552.184000", "121552.187000", "121552.190000", "121552.193000", "121552.195000", "121552.198000", "121632.147000", "121632.150000", "121632.152000", "121632.155000", "121632.158000", "121632.160000", "121632.163000", "121632.166000", "121632.169000", "121632.171000", "121632.174000", "121632.177000", "121632.180000", "121632.182000", "121632.185000", "121632.188000", "121632.190000", "121632.193000", "121632.196000", "121632.199000", "121712.147000", "121712.150000", "121712.152000", "121712.155000", "121712.158000", "121712.161000", "121712.163000", "121712.166000", "121712.169000", "121712.172000", "121712.180000", "121712.183000", "121712.185000", "121712.188000", "121712.191000", "121712.194000", "121712.197000", "121712.199000", "121712.202000", "121712.212000", "121752.147000", "121752.150000", "121752.152000", "121752.155000", "121752.158000", "121752.161000", "121752.163000", "121752.166000", "121752.169000", "121752.171000", "121752.174000", "121752.177000", "121752.180000", "121752.182000", "121752.185000", "121752.188000", "121752.190000", "121752.193000", "121752.196000", "121752.199000", "121832.147000", "121832.150000", "121832.152000", "121832.155000", "121832.158000", "121832.161000", "121832.163000", "121832.166000", "121832.169000", "121832.172000", "121832.174000", "121832.177000", "121832.180000", "121832.182000", "121832.185000", "121832.188000", "121832.190000", "121832.193000", "121832.196000", "121832.199000", "121912.147000", "121912.150000", "121912.152000", "121912.155000", "121912.158000", "121912.160000", "121912.163000", "121912.166000", "121912.169000", "121912.171000", "121912.174000", "121912.177000", "121912.180000", "121912.182000", "121912.201000", "121912.203000", "121912.206000", "121912.209000", "121912.212000", "121912.214000", "121935.789000", "121935.792000", "121935.795000", "121935.798000", "121935.801000", "121935.803000", "121935.806000", "121935.809000", "121935.812000", "121935.814000", "121935.817000", "121935.820000"],
      "DataSetTrailingPadding": [
        "\u0000\u0000\u0000\u0000\u0000\u0000\u0000\u0000\u0000\u0000\u0000\u0000\u0000\u0000\u0000\u0000\u0000\u0000\u0000\u0000\u0000\u0000\u0000\u0000\u0000\u0000\u0000\u0000\u0000\u0000\u0000\u0000\u0000\u0000\u0000\u0000\u0000\u0000\u0000\u0000\u0000\u0000\u0000\u0000\u0000\u0000\u0000\u0000\u0000\u0000\u0000\u0000\u0000\u0000\u0000\u0000\u0000\u0000\u0000\u0000\u0000\u0000\u0000\u0000\u0000\u0000\u0000\u0000\u0000\u0000\u0000\u0000\u0000\u0000\u0000\u0000\u0000\u0000\u0000\u0000\u0000\u0000\u0000\u0000\u0000\u0000\u0000\u0000\u0000\u0000\u0000\u0000\u0000\u0000\u0000\u0000\u0000\u0000\u0000\u0000\u0000\u0000\u0000\u0000\u0000\u0000\u0000\u0000\u0000\u0000\u0000\u0000\u0000\u0000\u0000\u0000\u0000\u0000\u0000\u0000\u0000\u0000\u0000\u0000\u0000\u0000\u0000\u0000\u0000\u0000\u0000\u0000\u0000\u0000\u0000\u0000\u0000\u0000\u0000\u0000\u0000\u0000\u0000\u0000\u0000\u0000\u0000\u0000\u0000\u0000\u0000\u0000\u0000\u0000\u0000\u0000\u0000\u0000\u0000\u0000\u0000\u0000\u0000\u0000\u0000\u0000\u0000\u0000\u0000\u0000\u0000\u0000",
        "\u0000\u0000\u0000\u0000\u0000\u0000\u0000\u0000\u0000\u0000\u0000\u0000\u0000\u0000\u0000\u0000\u0000\u0000\u0000\u0000\u0000\u0000\u0000\u0000\u0000\u0000\u0000\u0000\u0000\u0000\u0000\u0000\u0000\u0000\u0000\u0000\u0000\u0000\u0000\u0000\u0000\u0000\u0000\u0000\u0000\u0000\u0000\u0000\u0000\u0000\u0000\u0000\u0000\u0000\u0000\u0000\u0000\u0000\u0000\u0000\u0000\u0000\u0000\u0000\u0000\u0000\u0000\u0000\u0000\u0000\u0000\u0000\u0000\u0000\u0000\u0000\u0000\u0000\u0000\u0000\u0000\u0000\u0000\u0000\u0000\u0000\u0000\u0000\u0000\u0000\u0000\u0000\u0000\u0000\u0000\u0000\u0000\u0000\u0000\u0000\u0000\u0000\u0000\u0000\u0000\u0000\u0000\u0000\u0000\u0000\u0000\u0000\u0000\u0000\u0000\u0000\u0000\u0000\u0000\u0000\u0000\u0000\u0000\u0000\u0000\u0000\u0000\u0000\u0000\u0000\u0000\u0000\u0000\u0000\u0000\u0000\u0000\u0000\u0000\u0000\u0000\u0000\u0000\u0000\u0000\u0000\u0000\u0000\u0000\u0000\u0000\u0000\u0000\u0000\u0000\u0000\u0000\u0000\u0000\u0000\u0000\u0000\u0000\u0000\u0000\u0000\u0000\u0000\u0000\u0000",
        "\u0000\u0000\u0000\u0000\u0000\u0000\u0000\u0000\u0000\u0000\u0000\u0000\u0000\u0000\u0000\u0000\u0000\u0000\u0000\u0000\u0000\u0000\u0000\u0000\u0000\u0000\u0000\u0000\u0000\u0000\u0000\u0000\u0000\u0000\u0000\u0000\u0000\u0000\u0000\u0000\u0000\u0000\u0000\u0000\u0000\u0000\u0000\u0000\u0000\u0000\u0000\u0000\u0000\u0000\u0000\u0000\u0000\u0000\u0000\u0000\u0000\u0000\u0000\u0000\u0000\u0000\u0000\u0000\u0000\u0000\u0000\u0000\u0000\u0000\u0000\u0000\u0000\u0000\u0000\u0000\u0000\u0000\u0000\u0000\u0000\u0000\u0000\u0000\u0000\u0000\u0000\u0000\u0000\u0000\u0000\u0000\u0000\u0000\u0000\u0000\u0000\u0000\u0000\u0000\u0000\u0000\u0000\u0000\u0000\u0000\u0000\u0000\u0000\u0000\u0000\u0000\u0000\u0000\u0000\u0000\u0000\u0000\u0000\u0000\u0000\u0000\u0000\u0000\u0000\u0000\u0000\u0000\u0000\u0000\u0000\u0000\u0000\u0000\u0000\u0000\u0000\u0000\u0000\u0000\u0000\u0000\u0000\u0000\u0000\u0000\u0000\u0000\u0000\u0000\u0000\u0000\u0000\u0000\u0000\u0000\u0000\u0000\u0000\u0000\u0000\u0000\u0000\u0000\u0000\u0000",
        "\u0000\u0000\u0000\u0000\u0000\u0000\u0000\u0000\u0000\u0000\u0000\u0000\u0000\u0000\u0000\u0000\u0000\u0000\u0000\u0000\u0000\u0000\u0000\u0000\u0000\u0000\u0000\u0000\u0000\u0000\u0000\u0000\u0000\u0000\u0000\u0000\u0000\u0000\u0000\u0000\u0000\u0000\u0000\u0000\u0000\u0000\u0000\u0000\u0000\u0000\u0000\u0000\u0000\u0000\u0000\u0000\u0000\u0000\u0000\u0000\u0000\u0000\u0000\u0000\u0000\u0000\u0000\u0000\u0000\u0000\u0000\u0000\u0000\u0000\u0000\u0000\u0000\u0000\u0000\u0000\u0000\u0000\u0000\u0000\u0000\u0000\u0000\u0000\u0000\u0000\u0000\u0000\u0000\u0000\u0000\u0000\u0000\u0000\u0000\u0000\u0000\u0000\u0000\u0000\u0000\u0000\u0000\u0000\u0000\u0000\u0000\u0000\u0000\u0000\u0000\u0000\u0000\u0000\u0000\u0000\u0000\u0000\u0000\u0000\u0000\u0000\u0000\u0000\u0000\u0000\u0000\u0000\u0000\u0000\u0000\u0000\u0000\u0000\u0000\u0000\u0000\u0000\u0000\u0000\u0000\u0000\u0000\u0000\u0000\u0000\u0000\u0000\u0000\u0000\u0000\u0000\u0000\u0000\u0000\u0000\u0000\u0000\u0000\u0000\u0000\u0000\u0000\u0000\u0000\u0000",
        "\u0000\u0000\u0000\u0000\u0000\u0000\u0000\u0000\u0000\u0000\u0000\u0000\u0000\u0000\u0000\u0000\u0000\u0000\u0000\u0000\u0000\u0000\u0000\u0000\u0000\u0000\u0000\u0000\u0000\u0000\u0000\u0000\u0000\u0000\u0000\u0000\u0000\u0000\u0000\u0000\u0000\u0000\u0000\u0000\u0000\u0000\u0000\u0000\u0000\u0000\u0000\u0000\u0000\u0000\u0000\u0000\u0000\u0000\u0000\u0000\u0000\u0000\u0000\u0000\u0000\u0000\u0000\u0000\u0000\u0000\u0000\u0000\u0000\u0000\u0000\u0000\u0000\u0000\u0000\u0000\u0000\u0000\u0000\u0000\u0000\u0000\u0000\u0000\u0000\u0000\u0000\u0000\u0000\u0000\u0000\u0000\u0000\u0000\u0000\u0000\u0000\u0000\u0000\u0000\u0000\u0000\u0000\u0000\u0000\u0000\u0000\u0000\u0000\u0000\u0000\u0000\u0000\u0000\u0000\u0000\u0000\u0000\u0000\u0000\u0000\u0000\u0000\u0000\u0000\u0000\u0000\u0000\u0000\u0000\u0000\u0000\u0000\u0000\u0000\u0000\u0000\u0000\u0000\u0000\u0000\u0000\u0000\u0000\u0000\u0000\u0000\u0000\u0000\u0000\u0000\u0000\u0000\u0000\u0000\u0000\u0000\u0000\u0000\u0000\u0000\u0000\u0000\u0000",
        "\u0000\u0000\u0000\u0000\u0000\u0000\u0000\u0000\u0000\u0000\u0000\u0000\u0000\u0000\u0000\u0000\u0000\u0000\u0000\u0000\u0000\u0000\u0000\u0000\u0000\u0000\u0000\u0000\u0000\u0000\u0000\u0000\u0000\u0000\u0000\u0000\u0000\u0000\u0000\u0000\u0000\u0000\u0000\u0000\u0000\u0000\u0000\u0000\u0000\u0000\u0000\u0000\u0000\u0000\u0000\u0000\u0000\u0000\u0000\u0000\u0000\u0000\u0000\u0000\u0000\u0000\u0000\u0000\u0000\u0000\u0000\u0000\u0000\u0000\u0000\u0000\u0000\u0000\u0000\u0000\u0000\u0000\u0000\u0000\u0000\u0000\u0000\u0000\u0000\u0000\u0000\u0000\u0000\u0000\u0000\u0000\u0000\u0000\u0000\u0000\u0000\u0000\u0000\u0000\u0000\u0000\u0000\u0000\u0000\u0000\u0000\u0000\u0000\u0000\u0000\u0000\u0000\u0000\u0000\u0000\u0000\u0000\u0000\u0000\u0000\u0000\u0000\u0000\u0000\u0000\u0000\u0000\u0000\u0000\u0000\u0000\u0000\u0000\u0000\u0000\u0000\u0000\u0000\u0000\u0000\u0000\u0000\u0000\u0000\u0000\u0000\u0000\u0000\u0000\u0000\u0000\u0000\u0000\u0000\u0000\u0000\u0000\u0000\u0000\u0000\u0000\u0000\u0000",
        "\u0000\u0000\u0000\u0000\u0000\u0000\u0000\u0000\u0000\u0000\u0000\u0000\u0000\u0000\u0000\u0000\u0000\u0000\u0000\u0000\u0000\u0000\u0000\u0000\u0000\u0000\u0000\u0000\u0000\u0000\u0000\u0000\u0000\u0000\u0000\u0000\u0000\u0000\u0000\u0000\u0000\u0000\u0000\u0000\u0000\u0000\u0000\u0000\u0000\u0000\u0000\u0000\u0000\u0000\u0000\u0000\u0000\u0000\u0000\u0000\u0000\u0000\u0000\u0000\u0000\u0000\u0000\u0000\u0000\u0000\u0000\u0000\u0000\u0000\u0000\u0000\u0000\u0000\u0000\u0000\u0000\u0000\u0000\u0000\u0000\u0000\u0000\u0000\u0000\u0000\u0000\u0000\u0000\u0000\u0000\u0000\u0000\u0000\u0000\u0000\u0000\u0000\u0000\u0000\u0000\u0000\u0000\u0000\u0000\u0000\u0000\u0000\u0000\u0000\u0000\u0000\u0000\u0000\u0000\u0000\u0000\u0000\u0000\u0000\u0000\u0000\u0000\u0000\u0000\u0000\u0000\u0000\u0000\u0000\u0000\u0000\u0000\u0000\u0000\u0000\u0000\u0000\u0000\u0000\u0000\u0000\u0000\u0000\u0000\u0000\u0000\u0000\u0000\u0000\u0000\u0000\u0000\u0000\u0000\u0000\u0000\u0000\u0000\u0000\u0000\u0000\u0000\u0000",
        "\u0000\u0000\u0000\u0000\u0000\u0000\u0000\u0000\u0000\u0000\u0000\u0000\u0000\u0000\u0000\u0000\u0000\u0000\u0000\u0000\u0000\u0000\u0000\u0000\u0000\u0000\u0000\u0000\u0000\u0000\u0000\u0000\u0000\u0000\u0000\u0000\u0000\u0000\u0000\u0000\u0000\u0000\u0000\u0000\u0000\u0000\u0000\u0000\u0000\u0000\u0000\u0000\u0000\u0000\u0000\u0000\u0000\u0000\u0000\u0000\u0000\u0000\u0000\u0000\u0000\u0000\u0000\u0000\u0000\u0000\u0000\u0000\u0000\u0000\u0000\u0000\u0000\u0000\u0000\u0000\u0000\u0000\u0000\u0000\u0000\u0000\u0000\u0000\u0000\u0000\u0000\u0000\u0000\u0000\u0000\u0000\u0000\u0000\u0000\u0000\u0000\u0000\u0000\u0000\u0000\u0000\u0000\u0000\u0000\u0000\u0000\u0000\u0000\u0000\u0000\u0000\u0000\u0000\u0000\u0000\u0000\u0000\u0000\u0000\u0000\u0000\u0000\u0000\u0000\u0000\u0000\u0000\u0000\u0000\u0000\u0000\u0000\u0000\u0000\u0000\u0000\u0000\u0000\u0000\u0000\u0000\u0000\u0000\u0000\u0000\u0000\u0000\u0000\u0000\u0000\u0000\u0000\u0000\u0000\u0000\u0000\u0000\u0000\u0000\u0000\u0000\u0000\u0000",
        "\u0000\u0000\u0000\u0000\u0000\u0000\u0000\u0000\u0000\u0000\u0000\u0000\u0000\u0000\u0000\u0000\u0000\u0000\u0000\u0000\u0000\u0000\u0000\u0000\u0000\u0000\u0000\u0000\u0000\u0000\u0000\u0000\u0000\u0000\u0000\u0000\u0000\u0000\u0000\u0000\u0000\u0000\u0000\u0000\u0000\u0000\u0000\u0000\u0000\u0000\u0000\u0000\u0000\u0000\u0000\u0000\u0000\u0000\u0000\u0000\u0000\u0000\u0000\u0000\u0000\u0000\u0000\u0000\u0000\u0000\u0000\u0000\u0000\u0000\u0000\u0000\u0000\u0000\u0000\u0000\u0000\u0000\u0000\u0000\u0000\u0000\u0000\u0000\u0000\u0000\u0000\u0000\u0000\u0000\u0000\u0000\u0000\u0000\u0000\u0000\u0000\u0000\u0000\u0000\u0000\u0000\u0000\u0000\u0000\u0000\u0000\u0000\u0000\u0000\u0000\u0000\u0000\u0000\u0000\u0000\u0000\u0000\u0000\u0000\u0000\u0000\u0000\u0000\u0000\u0000\u0000\u0000\u0000\u0000\u0000\u0000\u0000\u0000\u0000\u0000\u0000\u0000\u0000\u0000\u0000\u0000\u0000\u0000\u0000\u0000\u0000\u0000\u0000\u0000\u0000\u0000\u0000\u0000\u0000\u0000\u0000\u0000\u0000\u0000\u0000\u0000\u0000\u0000",
        "\u0000\u0000\u0000\u0000\u0000\u0000\u0000\u0000\u0000\u0000\u0000\u0000\u0000\u0000\u0000\u0000\u0000\u0000\u0000\u0000\u0000\u0000\u0000\u0000\u0000\u0000\u0000\u0000\u0000\u0000\u0000\u0000\u0000\u0000\u0000\u0000\u0000\u0000\u0000\u0000\u0000\u0000\u0000\u0000\u0000\u0000\u0000\u0000\u0000\u0000\u0000\u0000\u0000\u0000\u0000\u0000\u0000\u0000\u0000\u0000\u0000\u0000\u0000\u0000\u0000\u0000\u0000\u0000\u0000\u0000\u0000\u0000\u0000\u0000\u0000\u0000\u0000\u0000\u0000\u0000\u0000\u0000\u0000\u0000\u0000\u0000\u0000\u0000\u0000\u0000\u0000\u0000\u0000\u0000\u0000\u0000\u0000\u0000\u0000\u0000\u0000\u0000\u0000\u0000\u0000\u0000\u0000\u0000\u0000\u0000\u0000\u0000\u0000\u0000\u0000\u0000\u0000\u0000\u0000\u0000\u0000\u0000\u0000\u0000\u0000\u0000\u0000\u0000\u0000\u0000\u0000\u0000\u0000\u0000\u0000\u0000\u0000\u0000\u0000\u0000\u0000\u0000\u0000\u0000\u0000\u0000\u0000\u0000\u0000\u0000\u0000\u0000\u0000\u0000\u0000\u0000\u0000\u0000\u0000\u0000\u0000\u0000\u0000\u0000",
        "\u0000\u0000\u0000\u0000\u0000\u0000\u0000\u0000\u0000\u0000\u0000\u0000\u0000\u0000\u0000\u0000\u0000\u0000\u0000\u0000\u0000\u0000\u0000\u0000\u0000\u0000\u0000\u0000\u0000\u0000\u0000\u0000\u0000\u0000\u0000\u0000\u0000\u0000\u0000\u0000\u0000\u0000\u0000\u0000\u0000\u0000\u0000\u0000\u0000\u0000\u0000\u0000\u0000\u0000\u0000\u0000\u0000\u0000\u0000\u0000\u0000\u0000\u0000\u0000\u0000\u0000\u0000\u0000\u0000\u0000\u0000\u0000\u0000\u0000\u0000\u0000\u0000\u0000\u0000\u0000\u0000\u0000\u0000\u0000\u0000\u0000\u0000\u0000\u0000\u0000\u0000\u0000\u0000\u0000\u0000\u0000\u0000\u0000\u0000\u0000\u0000\u0000\u0000\u0000\u0000\u0000\u0000\u0000\u0000\u0000\u0000\u0000\u0000\u0000\u0000\u0000\u0000\u0000\u0000\u0000\u0000\u0000\u0000\u0000\u0000\u0000\u0000\u0000\u0000\u0000\u0000\u0000\u0000\u0000\u0000\u0000\u0000\u0000\u0000\u0000\u0000\u0000\u0000\u0000\u0000\u0000\u0000\u0000\u0000\u0000\u0000\u0000\u0000\u0000\u0000\u0000\u0000\u0000\u0000\u0000\u0000\u0000\u0000\u0000",
