{
  "AcquisitionMatrixPE": 70,
  "AcquisitionNumber": 1,
  "AcquisitionTime": "10:11:52.167500",
  "BandwidthPerPixelPhaseEncode": 51.948,
  "BaseResolution": 70,
  "BodyPartExamined": "HEAD",
  "CoilCombinationMethod": "Sum of Squares",
  "ConsistencyInfo": "N4_VE11C_LATEST_20160120",
  "ConversionSoftware": "dcm2niix",
  "ConversionSoftwareVersion": "v1.0.20220720",
  "DerivedVendorReportedEchoSpacing": 0.000550001,
  "DeviceSerialNumber": "66061",
  "DwellTime": 3.3e-06,
  "EchoTime": 0.022,
  "EchoTrainLength": 35,
  "EffectiveEchoSpacing": 0.000275,
  "FlipAngle": 90,
  "HeudiconvVersion": "1.1.1",
  "ImageOrientationPatientDICOM": [0.999976, 0.00246316, 0.00652027, -0.00122166, 0.982932, -0.183964],
  "ImageOrientationText": "Tra>Cor(-10.6)>Sag(0.4)",
  "ImageType": [
    "ORIGINAL",
    "PRIMARY",
    "M",
    "ND",
    "NORM",
    "MOSAIC"
],
  "ImagingFrequency": 123.254,
  "InPlanePhaseEncodingDirectionDICOM": "COL",
  "InstitutionAddress": "Street StreetNo,City/1c4204/,District,KR,ZIP",
  "InstitutionName": "SKKU",
  "InstitutionalDepartmentName": "Department",
  "MRAcquisitionType": "2D",
  "MagneticFieldStrength": 3,
  "Manufacturer": "Siemens",
  "ManufacturersModelName": "Prisma",
  "MatrixCoilMode": "GRAPPA",
  "Modality": "MR",
  "NonlinearGradientCorrection": false,
  "ParallelReductionFactorInPlane": 2,
  "PartialFourier": 1,
  "PatientPosition": "HFS",
  "PercentPhaseFOV": 100,
  "PercentSampling": 100,
  "PhaseEncodingDirection": "j-",
  "PhaseEncodingSteps": 70,
  "PhaseResolution": 1,
  "PixelBandwidth": 2165,
  "ProcedureStepDescription": "Head^PI:Others",
  "ProtocolName": "BOLD_ep2d_3x3x3_feature1",
  "PulseSequenceDetails": "%SiemensSeq%\\ep2d_pace",
  "ReceiveCoilActiveElements": "HC1-7",
  "ReceiveCoilName": "HeadNeck_64",
  "ReconMatrixPE": 70,
  "RefLinesPE": 24,
  "RepetitionTime": 2,
  "SAR": 0.162327,
  "ScanOptions": "FS",
  "ScanningSequence": "EP",
  "SequenceName": "*epfid2d1_70",
  "SequenceVariant": "SK",
  "SeriesDescription": "BOLD_ep2d_3x3x3_feature1",
  "SeriesNumber": 4,
  "ShimSetting": [5059, 3718, 4465, 354, -31, -41, 24, 51],
  "SliceThickness": 3,
  "SliceTiming": [0.99, 0, 1.0375, 0.0475, 1.085, 0.095, 1.1325, 0.1425, 1.18, 0.19, 1.225, 0.235, 1.2725, 0.2825, 1.32, 0.33, 1.3675, 0.3775, 1.415, 0.425, 1.4625, 0.4725, 1.51, 0.52, 1.555, 0.565, 1.6025, 0.6125, 1.65, 0.66, 1.6975, 0.7075, 1.745, 0.755, 1.7925, 0.8025, 1.84, 0.85, 1.885, 0.895, 1.9325, 0.9425],
  "SoftwareVersions": "syngo MR E11",
  "SpacingBetweenSlices": 3,
  "StationName": "AWP66061",
  "TaskName": "feature",
  "TotalReadoutTime": 0.018975,
  "TxRefAmp": 272.694,
  "dcmmeta_affine": [
    [-2.999927043914795, -0.0036649678368121386, 0.020586350932717323, 104.79931640625],
    [-0.007389482110738754, 2.9487967491149902, -0.5518540740013123, -83.86236572265625],
    [0.019560813903808594, 0.5518913865089417, 2.9487342834472656, -64.14569854736328],
    [0.0, 0.0, 0.0, 1.0]
],
  "dcmmeta_reorient_transform": [
    [0.0, -1.0, 0.0, 69.0],
    [1.0, 0.0, 0.0, 0.0],
    [0.0, 0.0, -1.0, 41.0],
    [0.0, 0.0, 0.0, 1.0]
],
  "dcmmeta_shape": [70, 70, 42, 221],
  "dcmmeta_slice_dim": 2,
  "dcmmeta_version": 0.6,
  "global": {
    "const": {
      "AcquisitionMatrix": [70, 0, 0, 70],
      "AngioFlag": "N",
      "BitsAllocated": 16,
      "BitsStored": 12,
      "BodyPartExamined": "HEAD",
      "Columns": 490,
      "EchoNumbers": 1,
      "EchoTime": 22.0,
      "EchoTrainLength": 35,
      "FlipAngle": 90.0,
      "HighBit": 11,
      "ImageOrientationPatient": [0.99997570915698, 0.00246316065298, 0.00652027112929, -0.0012216559841, 0.98293226261067, -0.183963786316],
      "ImagePositionPatient": [-734.60552498717, -717.77771533767, 206.62232338391],
      "ImageType": [
        "ORIGINAL",
        "PRIMARY",
        "M",
        "ND",
        "NORM",
        "MOSAIC"
],
      "ImagedNucleus": "1H",
      "ImagingFrequency": 123.254445,
      "InPlanePhaseEncodingDirection": "COL",
      "MRAcquisitionType": "2D",
      "MagneticFieldStrength": 3.0,
      "Manufacturer": "SIEMENS",
      "ManufacturerModelName": "Prisma",
      "Modality": "MR",
      "NumberOfAverages": 1.0,
      "NumberOfPhaseEncodingSteps": 70,
      "PercentPhaseFieldOfView": 100.0,
      "PercentSampling": 100.0,
      "PerformedProcedureStepStartTime": "100453.274000",
      "PhotometricInterpretation": "MONOCHROME2",
      "PixelBandwidth": 2165.0,
      "PixelRepresentation": 0,
      "PixelSpacing": [3.0, 3.0],
      "ProtocolName": "BOLD_ep2d_3x3x3_feature1",
      "RepetitionTime": 2000.0,
      "Rows": 490,
      "SAR": 0.16232696447451,
      "SamplesPerPixel": 1,
      "ScanOptions": "FS",
      "ScanningSequence": "EP",
      "SequenceName": "*epfid2d1_70",
      "SequenceVariant": "SK",
      "SeriesDescription": "BOLD_ep2d_3x3x3_feature1",
      "SeriesNumber": 4,
      "SeriesTime": "101245.814000",
      "SliceLocation": 76.096204154488,
      "SliceThickness": 3.0,
      "SmallestImagePixelValue": 0,
      "SoftwareVersions": "syngo MR E11",
      "SpacingBetweenSlices": 3.0000000054326,
      "SpecificCharacterSet": "ISO_IR 100",
      "StudyID": "1",
      "StudyTime": "100453.216000",
      "TransmitCoilName": "Body",
      "VariableFlipAngleFlag": "N",
      "WindowCenterWidthExplanation": "Algo1",
      "dBdt": 0.0},
    "slices": {}
  },
  "time": {
    "samples": {
      "AcquisitionNumber": [1, 2, 3, 4, 5, 6, 7, 8, 9, 10, 11, 12, 13, 14, 15, 16, 17, 18, 19, 20, 21, 22, 23, 24, 25, 26, 27, 28, 29, 30, 31, 32, 33, 34, 35, 36, 37, 38, 39, 40, 41, 42, 43, 44, 45, 46, 47, 48, 49, 50, 51, 52, 53, 54, 55, 56, 57, 58, 59, 60, 61, 62, 63, 64, 65, 66, 67, 68, 69, 70, 71, 72, 73, 74, 75, 76, 77, 78, 79, 80, 81, 82, 83, 84, 85, 86, 87, 88, 89, 90, 91, 92, 93, 94, 95, 96, 97, 98, 99, 100, 101, 102, 103, 104, 105, 106, 107, 108, 109, 110, 111, 112, 113, 114, 115, 116, 117, 118, 119, 120, 121, 122, 123, 124, 125, 126, 127, 128, 129, 130, 131, 132, 133, 134, 135, 136, 137, 138, 139, 140, 141, 142, 143, 144, 145, 146, 147, 148, 149, 150, 151, 152, 153, 154, 155, 156, 157, 158, 159, 160, 161, 162, 163, 164, 165, 166, 167, 168, 169, 170, 171, 172, 173, 174, 175, 176, 177, 178, 179, 180, 181, 182, 183, 184, 185, 186, 187, 188, 189, 190, 191, 192, 193, 194, 195, 196, 197, 198, 199, 200, 201, 202, 203, 204, 205, 206, 207, 208, 209, 210, 211, 212, 213, 214, 215, 216, 217, 218, 219, 220, 221],
      "AcquisitionTime": ["101152.167500", "101154.167500", "101156.167500", "101158.167500", "101200.167500", "101202.167500", "101204.167500", "101206.167500", "101208.167500", "101210.167500", "101212.167500", "101214.167500", "101216.167500", "101218.167500", "101220.167500", "101222.167500", "101224.167500", "101226.167500", "101228.167500", "101230.167500", "101232.167500", "101234.167500", "101236.167500", "101238.167500", "101240.167500", "101242.167500", "101244.167500", "101246.167500", "101248.167500", "101250.167500", "101252.167500", "101254.167500", "101256.167500", "101258.167500", "101300.167500", "101302.167500", "101304.167500", "101306.167500", "101308.167500", "101310.167500", "101312.167500", "101314.167500", "101316.167500", "101318.167500", "101320.167500", "101322.167500", "101324.167500", "101326.167500", "101328.167500", "101330.167500", "101332.167500", "101334.167500", "101336.167500", "101338.167500", "101340.167500", "101342.167500", "101344.167500", "101346.167500", "101348.167500", "101350.167500", "101352.167500", "101354.167500", "101356.167500", "101358.167500", "101400.167500", "101402.167500", "101404.167500", "101406.167500", "101408.167500", "101410.167500", "101412.167500", "101414.167500", "101416.167500", "101418.167500", "101420.167500", "101422.167500", "101424.167500", "101426.167500", "101428.167500", "101430.167500", "101432.167500", "101434.167500", "101436.167500", "101438.167500", "101440.167500", "101442.167500", "101444.167500", "101446.167500", "101448.167500", "101450.167500", "101452.167500", "101454.167500", "101456.167500", "101458.167500", "101500.167500", "101502.167500", "101504.167500", "101506.167500", "101508.167500", "101510.167500", "101512.167500", "101514.167500", "101516.167500", "101518.167500", "101520.167500", "101522.167500", "101524.167500", "101526.167500", "101528.167500", "101530.167500", "101532.167500", "101534.167500", "101536.167500", "101538.167500", "101540.167500", "101542.167500", "101544.167500", "101546.167500", "101548.167500", "101550.167500", "101552.167500", "101554.167500", "101556.167500", "101558.167500", "101600.167500", "101602.167500", "101604.167500", "101606.167500", "101608.167500", "101610.167500", "101612.167500", "101614.167500", "101616.167500", "101618.167500", "101620.167500", "101622.167500", "101624.167500", "101626.167500", "101628.167500", "101630.167500", "101632.167500", "101634.167500", "101636.167500", "101638.167500", "101640.167500", "101642.167500", "101644.167500", "101646.167500", "101648.167500", "101650.167500", "101652.167500", "101654.167500", "101656.167500", "101658.167500", "101700.167500", "101702.167500", "101704.167500", "101706.167500", "101708.167500", "101710.167500", "101712.167500", "101714.167500", "101716.167500", "101718.167500", "101720.167500", "101722.167500", "101724.167500", "101726.167500", "101728.167500", "101730.167500", "101732.167500", "101734.167500", "101736.167500", "101738.167500", "101740.167500", "101742.167500", "101744.167500", "101746.167500", "101748.167500", "101750.167500", "101752.167500", "101754.167500", "101756.167500", "101758.167500", "101800.167500", "101802.167500", "101804.167500", "101806.167500", "101808.167500", "101810.167500", "101812.167500", "101814.167500", "101816.167500", "101818.167500", "101820.167500", "101822.167500", "101824.167500", "101826.167500", "101828.167500", "101830.167500", "101832.167500", "101834.167500", "101836.167500", "101838.167500", "101840.167500", "101842.167500", "101844.167500", "101846.167500", "101848.167500", "101850.167500", "101852.167500", "101854.167500", "101856.167500", "101858.167500", "101900.167500", "101902.167500", "101904.167500", "101906.167500", "101908.167500", "101910.167500", "101912.167500"],
      "ContentTime": ["101245.817000", "101245.821000", "101245.823000", "101245.826000", "101245.829000", "101245.831000", "101245.839000", "101245.842000", "101245.844000", "101245.847000", "101245.849000", "101245.852000", "101245.855000", "101245.857000", "101245.860000", "101245.871000", "101245.873000", "101245.876000", "101245.879000", "101245.881000", "101245.884000", "101245.887000", "101245.889000", "101245.892000", "101245.895000", "101245.897000", "101245.900000", "101325.812000", "101325.815000", "101325.818000", "101325.821000", "101325.824000", "101325.826000", "101325.829000", "101325.832000", "101325.839000", "101325.842000", "101325.844000", "101325.847000", "101325.850000", "101325.852000", "101325.855000", "101325.858000", "101325.860000", "101325.863000", "101325.866000", "101325.868000", "101405.813000", "101405.816000", "101405.819000", "101405.822000", "101405.825000", "101405.827000", "101405.830000", "101405.833000", "101405.836000", "101405.840000", "101405.842000", "101405.845000", "101405.848000", "101405.851000", "101405.854000", "101405.857000", "101405.860000", "101405.863000", "101405.865000", "101405.868000", "101445.813000", "101445.816000", "101445.819000", "101445.822000", "101445.824000", "101445.827000", "101445.830000", "101445.832000", "101445.835000", "101445.838000", "101445.840000", "101445.843000", "101445.846000", "101445.848000", "101445.851000", "101445.854000", "101445.857000", "101445.859000", "101445.862000", "101445.865000", "101525.813000", "101525.815000", "101525.818000", "101525.821000", "101525.823000", "101525.826000", "101525.829000", "101525.831000", "101525.834000", "101525.837000", "101525.839000", "101525.842000", "101525.845000", "101525.847000", "101525.850000", "101525.853000", "101525.855000", "101525.858000", "101525.861000", "101525.863000", "101605.812000", "101605.815000", "101605.818000", "101605.821000", "101605.823000", "101605.826000", "101605.829000", "101605.831000", "101605.834000", "101605.837000", "101605.839000", "101605.842000", "101605.845000", "101605.847000", "101605.850000", "101605.853000", "101605.855000", "101605.858000", "101605.861000", "101605.863000", "101645.814000", "101645.816000", "101645.819000", "101645.822000", "101645.824000", "101645.827000", "101645.830000", "101645.833000", "101645.835000", "101645.838000", "101645.841000", "101645.843000", "101645.846000", "101645.849000", "101645.851000", "101645.854000", "101645.857000", "101645.859000", "101645.862000", "101645.865000", "101725.812000", "101725.815000", "101725.818000", "101725.821000", "101725.823000", "101725.826000", "101725.829000", "101725.832000", "101725.834000", "101725.837000", "101725.839000", "101725.842000", "101725.845000", "101725.847000", "101725.850000", "101725.853000", "101725.856000", "101725.858000", "101725.861000", "101725.864000", "101805.812000", "101805.815000", "101805.818000", "101805.821000", "101805.823000", "101805.826000", "101805.829000", "101805.832000", "101805.834000", "101805.837000", "101805.839000", "101805.842000", "101805.845000", "101805.848000", "101805.850000", "101805.853000", "101805.856000", "101805.858000", "101805.861000", "101805.864000", "101845.814000", "101845.816000", "101845.819000", "101845.822000", "101845.824000", "101845.827000", "101845.830000", "101845.833000", "101845.835000", "101845.838000", "101845.840000", "101845.843000", "101845.846000", "101845.849000", "101845.851000", "101845.854000", "101845.857000", "101845.859000", "101845.862000", "101845.865000", "101913.560000", "101913.563000", "101913.566000", "101913.569000", "101913.572000", "101913.575000", "101913.578000", "101913.580000", "101913.583000", "101913.586000", "101913.588000", "101913.591000", "101913.594000", "101913.596000"],
      "InstanceCreationTime": ["101245.817000", "101245.821000", "101245.823000", "101245.826000", "101245.829000", "101245.831000", "101245.839000", "101245.842000", "101245.844000", "101245.847000", "101245.849000", "101245.852000", "101245.855000", "101245.857000", "101245.860000", "101245.871000", "101245.873000", "101245.876000", "101245.879000", "101245.881000", "101245.884000", "101245.887000", "101245.889000", "101245.892000", "101245.895000", "101245.897000", "101245.900000", "101325.812000", "101325.815000", "101325.818000", "101325.821000", "101325.824000", "101325.826000", "101325.829000", "101325.832000", "101325.839000", "101325.842000", "101325.844000", "101325.847000", "101325.850000", "101325.852000", "101325.855000", "101325.858000", "101325.860000", "101325.863000", "101325.866000", "101325.868000", "101405.813000", "101405.816000", "101405.819000", "101405.822000", "101405.825000", "101405.827000", "101405.830000", "101405.833000", "101405.836000", "101405.840000", "101405.842000", "101405.845000", "101405.848000", "101405.851000", "101405.854000", "101405.857000", "101405.860000", "101405.863000", "101405.865000", "101405.868000", "101445.813000", "101445.816000", "101445.819000", "101445.822000", "101445.824000", "101445.827000", "101445.830000", "101445.832000", "101445.835000", "101445.838000", "101445.840000", "101445.843000", "101445.846000", "101445.848000", "101445.851000", "101445.854000", "101445.857000", "101445.859000", "101445.862000", "101445.865000", "101525.813000", "101525.815000", "101525.818000", "101525.821000", "101525.823000", "101525.826000", "101525.829000", "101525.831000", "101525.834000", "101525.837000", "101525.839000", "101525.842000", "101525.845000", "101525.847000", "101525.850000", "101525.853000", "101525.855000", "101525.858000", "101525.861000", "101525.863000", "101605.812000", "101605.815000", "101605.818000", "101605.821000", "101605.823000", "101605.826000", "101605.829000", "101605.831000", "101605.834000", "101605.837000", "101605.839000", "101605.842000", "101605.845000", "101605.847000", "101605.850000", "101605.853000", "101605.855000", "101605.858000", "101605.861000", "101605.863000", "101645.814000", "101645.816000", "101645.819000", "101645.822000", "101645.824000", "101645.827000", "101645.830000", "101645.833000", "101645.835000", "101645.838000", "101645.841000", "101645.843000", "101645.846000", "101645.849000", "101645.851000", "101645.854000", "101645.857000", "101645.859000", "101645.862000", "101645.865000", "101725.812000", "101725.815000", "101725.818000", "101725.821000", "101725.823000", "101725.826000", "101725.829000", "101725.832000", "101725.834000", "101725.837000", "101725.839000", "101725.842000", "101725.845000", "101725.847000", "101725.850000", "101725.853000", "101725.856000", "101725.858000", "101725.861000", "101725.864000", "101805.812000", "101805.815000", "101805.818000", "101805.821000", "101805.823000", "101805.826000", "101805.829000", "101805.832000", "101805.834000", "101805.837000", "101805.839000", "101805.842000", "101805.845000", "101805.848000", "101805.850000", "101805.853000", "101805.856000", "101805.858000", "101805.861000", "101805.864000", "101845.814000", "101845.816000", "101845.819000", "101845.822000", "101845.824000", "101845.827000", "101845.830000", "101845.833000", "101845.835000", "101845.838000", "101845.840000", "101845.843000", "101845.846000", "101845.849000", "101845.851000", "101845.854000", "101845.857000", "101845.859000", "101845.862000", "101845.865000", "101913.560000", "101913.563000", "101913.566000", "101913.569000", "101913.572000", "101913.575000", "101913.578000", "101913.580000", "101913.583000", "101913.586000", "101913.588000", "101913.591000", "101913.594000", "101913.596000"],
      "InstanceNumber": [1, 2, 3, 4, 5, 6, 7, 8, 9, 10, 11, 12, 13, 14, 15, 16, 17, 18, 19, 20, 21, 22, 23, 24, 25, 26, 27, 28, 29, 30, 31, 32, 33, 34, 35, 36, 37, 38, 39, 40, 41, 42, 43, 44, 45, 46, 47, 48, 49, 50, 51, 52, 53, 54, 55, 56, 57, 58, 59, 60, 61, 62, 63, 64, 65, 66, 67, 68, 69, 70, 71, 72, 73, 74, 75, 76, 77, 78, 79, 80, 81, 82, 83, 84, 85, 86, 87, 88, 89, 90, 91, 92, 93, 94, 95, 96, 97, 98, 99, 100, 101, 102, 103, 104, 105, 106, 107, 108, 109, 110, 111, 112, 113, 114, 115, 116, 117, 118, 119, 120, 121, 122, 123, 124, 125, 126, 127, 128, 129, 130, 131, 132, 133, 134, 135, 136, 137, 138, 139, 140, 141, 142, 143, 144, 145, 146, 147, 148, 149, 150, 151, 152, 153, 154, 155, 156, 157, 158, 159, 160, 161, 162, 163, 164, 165, 166, 167, 168, 169, 170, 171, 172, 173, 174, 175, 176, 177, 178, 179, 180, 181, 182, 183, 184, 185, 186, 187, 188, 189, 190, 191, 192, 193, 194, 195, 196, 197, 198, 199, 200, 201, 202, 203, 204, 205, 206, 207, 208, 209, 210, 211, 212, 213, 214, 215, 216, 217, 218, 219, 220, 221],
      "LargestImagePixelValue": [2094, 1855, 1915, 2517, 3255, 1852, 2317, 2001, 2546, 1892, 2227, 2360, 1890, 1872, 1933, 2597, 3143, 1877, 2079, 2704, 1905, 2310, 1868, 3096, 1884, 1868, 2819, 1990, 2529, 1862, 2112, 3170, 1913, 2176, 2053, 1891, 2328, 1831, 1914, 1894, 1966, 2254, 1927, 2962, 1986, 2110, 1933, 2599, 2007, 1871, 1984, 2121, 2377, 1882, 2192, 1874, 2302, 1864, 2772, 3112, 1994, 2351, 1923, 2400, 2275, 1920, 1937, 1833, 1839, 2498, 1911, 2163, 1909, 1922, 2468, 1883, 1911, 2306, 1984, 2392, 1913, 1885, 2640, 1948, 2252, 2079, 1931, 2747, 1910, 1812, 1962, 3323, 1902, 2548, 1873, 1889, 2172, 1898, 1948, 3218, 2011, 2419, 1899, 2024, 3072, 1950, 2209, 1896, 2350, 2365, 1849, 2967, 2043, 2352, 1908, 2095, 2739, 1906, 2418, 1873, 1857, 2090, 1972, 2665, 1847, 2687, 1866, 1905, 2222, 2077, 3081, 1859, 2413, 1890, 1910, 2946, 1999, 2036, 2216, 1829, 1945, 1899, 1916, 2326, 2148, 1862, 2246, 2722, 1867, 2264, 1896, 1917, 3607, 2024, 2229, 1905, 2176, 2250, 1894, 2187, 1852, 1895, 2933, 1875, 2065, 1916, 1910, 2807, 1863, 1876, 2088, 1831, 2696, 1893, 2002, 2982, 1964, 1898, 2148, 1900, 1987, 1838, 1884, 1877, 1937, 2290, 3348, 1845, 1906, 2557, 3387, 1865, 1907, 2214, 2037, 1938, 2577, 1892, 1887, 2473, 1857, 2190, 2073, 2436, 1982, 1840, 2075, 2623, 1975, 1898, 2233, 1944, 2078, 2327, 1867, 1890, 2440, 1880, 1933, 2352, 1909],
      "WindowCenter": [883.0, 882.0, 883.0, 884.0, 884.0, 882.0, 883.0, 882.0, 883.0, 881.0, 882.0, 882.0, 881.0, 882.0, 882.0, 882.0, 882.0, 881.0, 882.0, 883.0, 882.0, 884.0, 884.0, 885.0, 882.0, 881.0, 882.0, 881.0, 882.0, 881.0, 881.0, 882.0, 880.0, 881.0, 881.0, 881.0, 882.0, 881.0, 881.0, 882.0, 882.0, 883.0, 882.0, 883.0, 882.0, 882.0, 882.0, 882.0, 881.0, 880.0, 880.0, 880.0, 880.0, 880.0, 880.0, 881.0, 883.0, 882.0, 882.0, 883.0, 881.0, 882.0, 881.0, 881.0, 881.0, 880.0, 880.0, 880.0, 881.0, 882.0, 882.0, 882.0, 881.0, 881.0, 882.0, 881.0, 880.0, 882.0, 882.0, 882.0, 881.0, 881.0, 882.0, 881.0, 882.0, 881.0, 880.0, 881.0, 880.0, 880.0, 881.0, 883.0, 881.0, 881.0, 880.0, 880.0, 881.0, 880.0, 880.0, 882.0, 880.0, 881.0, 880.0, 881.0, 883.0, 881.0, 881.0, 881.0, 882.0, 882.0, 881.0, 882.0, 881.0, 882.0, 881.0, 881.0, 882.0, 881.0, 882.0, 881.0, 881.0, 881.0, 881.0, 882.0, 881.0, 881.0, 880.0, 880.0, 881.0, 882.0, 882.0, 880.0, 880.0, 880.0, 880.0, 882.0, 880.0, 880.0, 880.0, 880.0, 880.0, 881.0, 881.0, 882.0, 881.0, 881.0, 882.0, 883.0, 881.0, 883.0, 882.0, 882.0, 884.0, 882.0, 882.0, 882.0, 882.0, 882.0, 881.0, 882.0, 882.0, 881.0, 883.0, 880.0, 880.0, 881.0, 882.0, 882.0, 880.0, 881.0, 883.0, 882.0, 882.0, 881.0, 883.0, 884.0, 882.0, 881.0, 881.0, 882.0, 882.0, 881.0, 882.0, 883.0, 883.0, 883.0, 883.0, 880.0, 880.0, 882.0, 882.0, 879.0, 880.0, 881.0, 881.0, 881.0, 881.0, 881.0, 881.0, 882.0, 881.0, 881.0, 881.0, 881.0, 881.0, 880.0, 881.0, 882.0, 881.0, 880.0, 881.0, 882.0, 882.0, 882.0, 882.0, 882.0, 882.0, 882.0, 882.0, 883.0, 881.0],
      "WindowWidth": [1857.0, 1853.0, 1857.0, 1860.0, 1864.0, 1852.0, 1857.0, 1853.0, 1858.0, 1851.0, 1855.0, 1855.0, 1851.0, 1852.0, 1853.0, 1857.0, 1859.0, 1850.0, 1853.0, 1859.0, 1854.0, 1861.0, 1856.0, 1865.0, 1852.0, 1850.0, 1858.0, 1852.0, 1857.0, 1849.0, 1851.0, 1860.0, 1848.0, 1852.0, 1852.0, 1850.0, 1855.0, 1849.0, 1851.0, 1854.0, 1853.0, 1857.0, 1853.0, 1861.0, 1852.0, 1854.0, 1853.0, 1857.0, 1851.0, 1848.0, 1849.0, 1849.0, 1851.0, 1847.0, 1850.0, 1851.0, 1858.0, 1853.0, 1858.0, 1860.0, 1851.0, 1855.0, 1850.0, 1853.0, 1852.0, 1849.0, 1849.0, 1849.0, 1850.0, 1857.0, 1852.0, 1853.0, 1850.0, 1850.0, 1855.0, 1849.0, 1848.0, 1855.0, 1853.0, 1857.0, 1851.0, 1851.0, 1858.0, 1852.0, 1854.0, 1851.0, 1849.0, 1856.0, 1848.0, 1849.0, 1852.0, 1861.0, 1850.0, 1855.0, 1847.0, 1847.0, 1851.0, 1849.0, 1849.0, 1859.0, 1850.0, 1852.0, 1848.0, 1853.0, 1860.0, 1850.0, 1852.0, 1850.0, 1857.0, 1855.0, 1849.0, 1859.0, 1851.0, 1856.0, 1850.0, 1851.0, 1856.0, 1850.0, 1856.0, 1851.0, 1850.0, 1852.0, 1852.0, 1858.0, 1849.0, 1854.0, 1846.0, 1848.0, 1853.0, 1853.0, 1859.0, 1847.0, 1851.0, 1847.0, 1848.0, 1857.0, 1849.0, 1849.0, 1850.0, 1848.0, 1849.0, 1850.0, 1851.0, 1854.0, 1852.0, 1850.0, 1855.0, 1858.0, 1850.0, 1857.0, 1854.0, 1853.0, 1864.0, 1853.0, 1854.0, 1851.0, 1853.0, 1854.0, 1849.0, 1853.0, 1852.0, 1851.0, 1858.0, 1846.0, 1847.0, 1849.0, 1850.0, 1858.0, 1848.0, 1849.0, 1855.0, 1851.0, 1856.0, 1851.0, 1855.0, 1863.0, 1850.0, 1849.0, 1852.0, 1851.0, 1851.0, 1848.0, 1853.0, 1855.0, 1854.0, 1856.0, 1861.0, 1848.0, 1848.0, 1855.0, 1858.0, 1845.0, 1846.0, 1852.0, 1850.0, 1848.0, 1854.0, 1849.0, 1850.0, 1856.0, 1850.0, 1852.0, 1849.0, 1853.0, 1849.0, 1847.0, 1851.0, 1856.0, 1850.0, 1849.0, 1853.0, 1852.0, 1852.0, 1855.0, 1851.0, 1852.0, 1856.0, 1851.0, 1854.0, 1857.0, 1851.0]
    },
    "slices": {}
  }
}