{
  "AcquisitionMatrixPE": 70,
  "AcquisitionNumber": 1,
  "AcquisitionTime": "11:06:11.370000",
  "BandwidthPerPixelPhaseEncode": 51.948,
  "BaseResolution": 70,
  "BodyPartExamined": "HEAD",
  "CoilCombinationMethod": "Sum of Squares",
  "ConsistencyInfo": "N4_VE11C_LATEST_20160120",
  "ConversionSoftware": "dcm2niix",
  "ConversionSoftwareVersion": "v1.0.20220720",
  "DerivedVendorReportedEchoSpacing": 0.000550001,
  "DeviceSerialNumber": "66061",
  "DwellTime": 3.3e-06,
  "EchoTime": 0.022,
  "EchoTrainLength": 35,
  "EffectiveEchoSpacing": 0.000275,
  "FlipAngle": 90,
  "HeudiconvVersion": "1.1.1",
  "ImageOrientationPatientDICOM": [0.999986, 0.000254154, -0.00528352, -0.00122172, 0.982935, -0.183947],
  "ImageOrientationText": "Tra>Cor(-10.6)>Sag(-0.3)",
  "ImageType": [
    "ORIGINAL",
    "PRIMARY",
    "M",
    "ND",
    "NORM",
    "MOSAIC"
],
  "ImagingFrequency": 123.255,
  "InPlanePhaseEncodingDirectionDICOM": "COL",
  "InstitutionAddress": "Street StreetNo,City/1c4204/,District,KR,ZIP",
  "InstitutionName": "SKKU",
  "InstitutionalDepartmentName": "Department",
  "MRAcquisitionType": "2D",
  "MagneticFieldStrength": 3,
  "Manufacturer": "Siemens",
  "ManufacturersModelName": "Prisma",
  "MatrixCoilMode": "GRAPPA",
  "Modality": "MR",
  "NonlinearGradientCorrection": false,
  "ParallelReductionFactorInPlane": 2,
  "PartialFourier": 1,
  "PatientPosition": "HFS",
  "PercentPhaseFOV": 100,
  "PercentSampling": 100,
  "PhaseEncodingDirection": "j-",
  "PhaseEncodingSteps": 70,
  "PhaseResolution": 1,
  "PixelBandwidth": 2165,
  "ProcedureStepDescription": "Head^PI:Others",
  "ProtocolName": "BOLD_ep2d_3x3x3_response1",
  "PulseSequenceDetails": "%SiemensSeq%\\ep2d_pace",
  "ReceiveCoilActiveElements": "HC1-7",
  "ReceiveCoilName": "HeadNeck_64",
  "ReconMatrixPE": 70,
  "RefLinesPE": 24,
  "RepetitionTime": 2,
  "SAR": 0.163561,
  "ScanOptions": "FS",
  "ScanningSequence": "EP",
  "SequenceName": "*epfid2d1_70",
  "SequenceVariant": "SK",
  "SeriesDescription": "BOLD_ep2d_3x3x3_response1",
  "SeriesNumber": 8,
  "ShimSetting": [5034, 3716, 4454, 325, -73, -49, 58, 58],
  "SliceThickness": 3,
  "SliceTiming": [0.99, 0, 1.0375, 0.0475, 1.0825, 0.0925, 1.13, 0.14, 1.1775, 0.1875, 1.225, 0.235, 1.2725, 0.2825, 1.32, 0.33, 1.3675, 0.3775, 1.4125, 0.4225, 1.46, 0.47, 1.5075, 0.5175, 1.555, 0.565, 1.6025, 0.6125, 1.65, 0.66, 1.6975, 0.7075, 1.7425, 0.7525, 1.79, 0.8, 1.8375, 0.8475, 1.885, 0.895, 1.9325, 0.9425],
  "SoftwareVersions": "syngo MR E11",
  "SpacingBetweenSlices": 3,
  "StationName": "AWP66061",
  "TaskName": "response",
  "TotalReadoutTime": 0.018975,
  "TxRefAmp": 273.835,
  "dcmmeta_affine": [
    [-2.999958038330078, -0.003665172727778554, -0.015439820475876331, 102.60472106933594],
    [-0.0007624623831361532, 2.948806047439575, -0.5518540740013123, -81.68498229980469],
    [-0.015850558876991272, 0.5518423914909363, 2.948765516281128, -65.92167663574219],
    [0.0, 0.0, 0.0, 1.0]
],
  "dcmmeta_reorient_transform": [
    [0.0, -1.0, 0.0, 69.0],
    [1.0, 0.0, 0.0, 0.0],
    [0.0, 0.0, -1.0, 41.0],
    [0.0, 0.0, 0.0, 1.0]
],
  "dcmmeta_shape": [70, 70, 42, 341],
  "dcmmeta_slice_dim": 2,
  "dcmmeta_version": 0.6,
  "global": {
    "const": {
      "AcquisitionMatrix": [70, 0, 0, 70],
      "AngioFlag": "N",
      "BitsAllocated": 16,
      "BitsStored": 12,
      "BodyPartExamined": "HEAD",
      "Columns": 490,
      "EchoNumbers": 1,
      "EchoTime": 22.0,
      "EchoTrainLength": 35,
      "FlipAngle": 90.0,
      "HighBit": 11,
      "ImageOrientationPatient": [0.99998600981602, 0.00025415412139, -0.0052835194625, -0.0012217242077, 0.98293531554454, -0.1839474730604],
      "ImagePositionPatient": [-730.94029451978, -718.5659778482, 212.27036452633],
      "ImageType": [
        "ORIGINAL",
        "PRIMARY",
        "M",
        "ND",
        "NORM",
        "MOSAIC"
],
      "ImagedNucleus": "1H",
      "ImagingFrequency": 123.254633,
      "InPlanePhaseEncodingDirection": "COL",
      "MRAcquisitionType": "2D",
      "MagneticFieldStrength": 3.0,
      "Manufacturer": "SIEMENS",
      "ManufacturerModelName": "Prisma",
      "Modality": "MR",
      "NumberOfAverages": 1.0,
      "NumberOfPhaseEncodingSteps": 70,
      "PercentPhaseFieldOfView": 100.0,
      "PercentSampling": 100.0,
      "PerformedProcedureStepStartTime": "103520.398000",
      "PhotometricInterpretation": "MONOCHROME2",
      "PixelBandwidth": 2165.0,
      "PixelRepresentation": 0,
      "PixelSpacing": [3.0, 3.0],
      "ProtocolName": "BOLD_ep2d_3x3x3_response1",
      "RepetitionTime": 2000.0,
      "Rows": 490,
      "SAR": 0.16356128812584,
      "SamplesPerPixel": 1,
      "ScanOptions": "FS",
      "ScanningSequence": "EP",
      "SequenceName": "*epfid2d1_70",
      "SequenceVariant": "SK",
      "SeriesDescription": "BOLD_ep2d_3x3x3_response1",
      "SeriesNumber": 8,
      "SeriesTime": "110704.928000",
      "SliceLocation": 72.702137289747,
      "SliceThickness": 3.0,
      "SmallestImagePixelValue": 0,
      "SoftwareVersions": "syngo MR E11",
      "SpacingBetweenSlices": 3.0000000101665,
      "SpecificCharacterSet": "ISO_IR 100",
      "StudyID": "1",
      "StudyTime": "103520.261000",
      "TransmitCoilName": "Body",
      "VariableFlipAngleFlag": "N",
      "WindowCenterWidthExplanation": "Algo1",
      "dBdt": 0.0},
    "slices": {}
  },
  "time": {
    "samples": {
      "AcquisitionNumber": [1, 2, 3, 4, 5, 6, 7, 8, 9, 10, 11, 12, 13, 14, 15, 16, 17, 18, 19, 20, 21, 22, 23, 24, 25, 26, 27, 28, 29, 30, 31, 32, 33, 34, 35, 36, 37, 38, 39, 40, 41, 42, 43, 44, 45, 46, 47, 48, 49, 50, 51, 52, 53, 54, 55, 56, 57, 58, 59, 60, 61, 62, 63, 64, 65, 66, 67, 68, 69, 70, 71, 72, 73, 74, 75, 76, 77, 78, 79, 80, 81, 82, 83, 84, 85, 86, 87, 88, 89, 90, 91, 92, 93, 94, 95, 96, 97, 98, 99, 100, 101, 102, 103, 104, 105, 106, 107, 108, 109, 110, 111, 112, 113, 114, 115, 116, 117, 118, 119, 120, 121, 122, 123, 124, 125, 126, 127, 128, 129, 130, 131, 132, 133, 134, 135, 136, 137, 138, 139, 140, 141, 142, 143, 144, 145, 146, 147, 148, 149, 150, 151, 152, 153, 154, 155, 156, 157, 158, 159, 160, 161, 162, 163, 164, 165, 166, 167, 168, 169, 170, 171, 172, 173, 174, 175, 176, 177, 178, 179, 180, 181, 182, 183, 184, 185, 186, 187, 188, 189, 190, 191, 192, 193, 194, 195, 196, 197, 198, 199, 200, 201, 202, 203, 204, 205, 206, 207, 208, 209, 210, 211, 212, 213, 214, 215, 216, 217, 218, 219, 220, 221, 222, 223, 224, 225, 226, 227, 228, 229, 230, 231, 232, 233, 234, 235, 236, 237, 238, 239, 240, 241, 242, 243, 244, 245, 246, 247, 248, 249, 250, 251, 252, 253, 254, 255, 256, 257, 258, 259, 260, 261, 262, 263, 264, 265, 266, 267, 268, 269, 270, 271, 272, 273, 274, 275, 276, 277, 278, 279, 280, 281, 282, 283, 284, 285, 286, 287, 288, 289, 290, 291, 292, 293, 294, 295, 296, 297, 298, 299, 300, 301, 302, 303, 304, 305, 306, 307, 308, 309, 310, 311, 312, 313, 314, 315, 316, 317, 318, 319, 320, 321, 322, 323, 324, 325, 326, 327, 328, 329, 330, 331, 332, 333, 334, 335, 336, 337, 338, 339, 340, 341],
      "AcquisitionTime": ["110611.370000", "110613.370000", "110615.370000", "110617.370000", "110619.370000", "110621.370000", "110623.370000", "110625.370000", "110627.370000", "110629.370000", "110631.370000", "110633.370000", "110635.370000", "110637.370000", "110639.370000", "110641.370000", "110643.370000", "110645.370000", "110647.370000", "110649.370000", "110651.370000", "110653.370000", "110655.370000", "110657.370000", "110659.370000", "110701.370000", "110703.370000", "110705.370000", "110707.370000", "110709.370000", "110711.370000", "110713.370000", "110715.370000", "110717.370000", "110719.370000", "110721.370000", "110723.370000", "110725.370000", "110727.370000", "110729.370000", "110731.370000", "110733.370000", "110735.370000", "110737.370000", "110739.370000", "110741.370000", "110743.370000", "110745.370000", "110747.370000", "110749.370000", "110751.370000", "110753.370000", "110755.370000", "110757.370000", "110759.370000", "110801.370000", "110803.370000", "110805.370000", "110807.370000", "110809.370000", "110811.370000", "110813.370000", "110815.370000", "110817.370000", "110819.370000", "110821.370000", "110823.370000", "110825.370000", "110827.370000", "110829.370000", "110831.370000", "110833.370000", "110835.370000", "110837.370000", "110839.370000", "110841.370000", "110843.370000", "110845.370000", "110847.370000", "110849.370000", "110851.370000", "110853.370000", "110855.370000", "110857.370000", "110859.370000", "110901.370000", "110903.370000", "110905.370000", "110907.370000", "110909.370000", "110911.370000", "110913.370000", "110915.370000", "110917.370000", "110919.370000", "110921.370000", "110923.370000", "110925.370000", "110927.370000", "110929.370000", "110931.370000", "110933.370000", "110935.370000", "110937.370000", "110939.370000", "110941.370000", "110943.370000", "110945.370000", "110947.370000", "110949.370000", "110951.370000", "110953.370000", "110955.370000", "110957.370000", "110959.370000", "111001.370000", "111003.370000", "111005.370000", "111007.370000", "111009.370000", "111011.370000", "111013.370000", "111015.370000", "111017.370000", "111019.370000", "111021.370000", "111023.370000", "111025.370000", "111027.370000", "111029.370000", "111031.370000", "111033.370000", "111035.370000", "111037.370000", "111039.370000", "111041.370000", "111043.370000", "111045.370000", "111047.370000", "111049.370000", "111051.370000", "111053.370000", "111055.370000", "111057.370000", "111059.370000", "111101.370000", "111103.370000", "111105.370000", "111107.370000", "111109.370000", "111111.370000", "111113.370000", "111115.370000", "111117.370000", "111119.370000", "111121.370000", "111123.370000", "111125.370000", "111127.370000", "111129.370000", "111131.370000", "111133.370000", "111135.370000", "111137.370000", "111139.370000", "111141.370000", "111143.370000", "111145.370000", "111147.370000", "111149.370000", "111151.370000", "111153.370000", "111155.370000", "111157.370000", "111159.370000", "111201.370000", "111203.370000", "111205.370000", "111207.370000", "111209.370000", "111211.370000", "111213.370000", "111215.370000", "111217.370000", "111219.370000", "111221.370000", "111223.370000", "111225.370000", "111227.370000", "111229.370000", "111231.370000", "111233.370000", "111235.370000", "111237.370000", "111239.370000", "111241.370000", "111243.370000", "111245.370000", "111247.370000", "111249.370000", "111251.370000", "111253.370000", "111255.370000", "111257.370000", "111259.370000", "111301.370000", "111303.370000", "111305.370000", "111307.370000", "111309.370000", "111311.370000", "111313.370000", "111315.370000", "111317.370000", "111319.370000", "111321.370000", "111323.370000", "111325.370000", "111327.370000", "111329.370000", "111331.370000", "111333.370000", "111335.370000", "111337.370000", "111339.370000", "111341.370000", "111343.370000", "111345.370000", "111347.370000", "111349.370000", "111351.370000", "111353.370000", "111355.370000", "111357.370000", "111359.370000", "111401.370000", "111403.370000", "111405.370000", "111407.370000", "111409.370000", "111411.370000", "111413.370000", "111415.370000", "111417.370000", "111419.370000", "111421.370000", "111423.370000", "111425.370000", "111427.370000", "111429.370000", "111431.370000", "111433.370000", "111435.370000", "111437.370000", "111439.370000", "111441.370000", "111443.370000", "111445.370000", "111447.370000", "111449.370000", "111451.370000", "111453.370000", "111455.370000", "111457.370000", "111459.370000", "111501.370000", "111503.370000", "111505.370000", "111507.370000", "111509.370000", "111511.370000", "111513.370000", "111515.370000", "111517.370000", "111519.370000", "111521.370000", "111523.370000", "111525.370000", "111527.370000", "111529.370000", "111531.370000", "111533.370000", "111535.370000", "111537.370000", "111539.370000", "111541.370000", "111543.370000", "111545.370000", "111547.370000", "111549.370000", "111551.370000", "111553.370000", "111555.370000", "111557.370000", "111559.370000", "111601.370000", "111603.370000", "111605.370000", "111607.370000", "111609.370000", "111611.370000", "111613.370000", "111615.370000", "111617.370000", "111619.370000", "111621.370000", "111623.370000", "111625.370000", "111627.370000", "111629.370000", "111631.370000", "111633.370000", "111635.370000", "111637.370000", "111639.370000", "111641.370000", "111643.370000", "111645.370000", "111647.370000", "111649.370000", "111651.370000", "111653.370000", "111655.370000", "111657.370000", "111659.370000", "111701.370000", "111703.370000", "111705.370000", "111707.370000", "111709.370000", "111711.370000", "111713.370000", "111715.370000", "111717.370000", "111719.370000", "111721.370000", "111723.370000", "111725.370000", "111727.370000", "111729.370000", "111731.370000"],
      "ContentTime": ["110704.931000", "110704.934000", "110704.942000", "110704.945000", "110704.953000", "110704.956000", "110704.964000", "110704.966000", "110704.969000", "110704.971000", "110704.974000", "110704.977000", "110704.979000", "110704.982000", "110704.984000", "110704.987000", "110704.990000", "110705.007000", "110705.009000", "110705.012000", "110705.014000", "110705.017000", "110705.020000", "110705.022000", "110705.025000", "110705.027000", "110705.030000", "110744.926000", "110744.929000", "110744.932000", "110744.935000", "110744.937000", "110744.940000", "110744.942000", "110744.945000", "110744.948000", "110744.950000", "110744.953000", "110744.956000", "110744.958000", "110744.961000", "110744.964000", "110744.966000", "110744.969000", "110744.972000", "110744.974000", "110744.977000", "110824.926000", "110824.928000", "110824.931000", "110824.934000", "110824.936000", "110824.939000", "110824.942000", "110824.944000", "110824.947000", "110824.953000", "110824.956000", "110824.958000", "110824.961000", "110824.964000", "110824.966000", "110824.969000", "110824.971000", "110824.974000", "110824.977000", "110824.979000", "110844.926000", "110844.928000", "110844.931000", "110844.934000", "110844.936000", "110844.939000", "110844.941000", "110844.944000", "110844.947000", "110844.949000", "110924.926000", "110924.929000", "110924.932000", "110924.935000", "110924.937000", "110924.940000", "110924.948000", "110924.950000", "110924.953000", "110924.955000", "110924.958000", "110924.961000", "110924.963000", "110924.966000", "110924.969000", "110924.971000", "110924.974000", "110924.976000", "110924.979000", "110924.982000", "111004.927000", "111004.930000", "111004.932000", "111004.935000", "111004.938000", "111004.940000", "111004.943000", "111004.945000", "111004.948000", "111004.955000", "111004.963000", "111004.966000", "111004.968000", "111004.971000", "111004.974000", "111004.976000", "111004.979000", "111004.982000", "111004.984000", "111004.987000", "111044.925000", "111044.928000", "111044.931000", "111044.934000", "111044.936000", "111044.939000", "111044.942000", "111044.944000", "111044.947000", "111044.950000", "111044.952000", "111044.955000", "111044.957000", "111044.960000", "111044.963000", "111044.965000", "111044.968000", "111044.971000", "111044.973000", "111044.976000", "111124.925000", "111124.928000", "111124.931000", "111124.934000", "111124.936000", "111124.939000", "111124.942000", "111124.944000", "111124.947000", "111124.949000", "111124.952000", "111124.955000", "111124.957000", "111124.960000", "111124.963000", "111124.965000", "111124.968000", "111124.971000", "111124.974000", "111124.976000", "111204.927000", "111204.930000", "111204.932000", "111204.935000", "111204.938000", "111204.940000", "111204.943000", "111204.945000", "111204.948000", "111204.951000", "111204.953000", "111204.956000", "111204.959000", "111204.961000", "111204.964000", "111204.967000", "111204.969000", "111204.972000", "111204.975000", "111204.977000", "111244.927000", "111244.929000", "111244.932000", "111244.935000", "111244.937000", "111244.940000", "111244.943000", "111244.945000", "111244.948000", "111244.950000", "111244.953000", "111244.956000", "111244.958000", "111244.961000", "111244.964000", "111244.966000", "111244.969000", "111244.972000", "111244.974000", "111244.977000", "111324.925000", "111324.928000", "111324.931000", "111324.934000", "111324.936000", "111324.939000", "111324.942000", "111324.944000", "111324.947000", "111324.950000", "111324.952000", "111324.955000", "111324.957000", "111324.960000", "111324.963000", "111324.965000", "111324.968000", "111324.971000", "111324.973000", "111324.976000", "111404.927000", "111404.930000", "111404.932000", "111404.935000", "111404.938000", "111404.940000", "111404.943000", "111404.945000", "111404.948000", "111404.951000", "111404.953000", "111404.956000", "111404.959000", "111404.961000", "111404.964000", "111404.967000", "111404.969000", "111404.972000", "111404.975000", "111404.977000", "111444.927000", "111444.929000", "111444.932000", "111444.935000", "111444.937000", "111444.940000", "111444.943000", "111444.945000", "111444.948000", "111444.950000", "111444.953000", "111444.956000", "111444.958000", "111444.961000", "111444.964000", "111444.966000", "111444.969000", "111444.972000", "111444.974000", "111444.977000", "111524.926000", "111524.935000", "111524.938000", "111524.940000", "111524.943000", "111524.945000", "111524.948000", "111524.951000", "111524.953000", "111524.956000", "111524.959000", "111524.961000", "111524.964000", "111524.967000", "111524.969000", "111524.988000", "111524.991000", "111524.994000", "111524.996000", "111525.000000", "111604.926000", "111604.928000", "111604.931000", "111604.934000", "111604.936000", "111604.939000", "111604.942000", "111604.944000", "111604.947000", "111604.950000", "111604.952000", "111604.955000", "111604.957000", "111604.960000", "111604.963000", "111604.965000", "111604.968000", "111604.970000", "111604.973000", "111604.976000", "111644.927000", "111644.929000", "111644.932000", "111644.935000", "111644.937000", "111644.940000", "111644.943000", "111644.958000", "111644.961000", "111644.964000", "111644.966000", "111644.969000", "111644.973000", "111644.975000", "111644.978000", "111644.980000", "111644.983000", "111644.986000", "111644.988000", "111644.991000", "111724.926000", "111724.928000", "111724.931000", "111724.934000", "111724.936000", "111724.939000", "111724.942000", "111724.944000", "111724.947000", "111724.950000", "111724.952000", "111724.955000", "111724.958000", "111724.960000", "111724.963000", "111724.965000", "111724.968000", "111724.971000", "111724.974000", "111724.976000", "111732.585000", "111732.588000", "111732.591000", "111732.593000"],
      "InstanceCreationTime": ["110704.931000", "110704.934000", "110704.942000", "110704.945000", "110704.953000", "110704.956000", "110704.964000", "110704.966000", "110704.969000", "110704.971000", "110704.974000", "110704.977000", "110704.979000", "110704.982000", "110704.984000", "110704.987000", "110704.990000", "110705.007000", "110705.009000", "110705.012000", "110705.014000", "110705.017000", "110705.020000", "110705.022000", "110705.025000", "110705.027000", "110705.030000", "110744.926000", "110744.929000", "110744.932000", "110744.935000", "110744.937000", "110744.940000", "110744.942000", "110744.945000", "110744.948000", "110744.950000", "110744.953000", "110744.956000", "110744.958000", "110744.961000", "110744.964000", "110744.966000", "110744.969000", "110744.972000", "110744.974000", "110744.977000", "110824.926000", "110824.928000", "110824.931000", "110824.934000", "110824.936000", "110824.939000", "110824.942000", "110824.944000", "110824.947000", "110824.953000", "110824.956000", "110824.958000", "110824.961000", "110824.964000", "110824.966000", "110824.969000", "110824.971000", "110824.974000", "110824.977000", "110824.979000", "110844.926000", "110844.928000", "110844.931000", "110844.934000", "110844.936000", "110844.939000", "110844.941000", "110844.944000", "110844.947000", "110844.949000", "110924.926000", "110924.929000", "110924.932000", "110924.935000", "110924.937000", "110924.940000", "110924.948000", "110924.950000", "110924.953000", "110924.955000", "110924.958000", "110924.961000", "110924.963000", "110924.966000", "110924.969000", "110924.971000", "110924.974000", "110924.976000", "110924.979000", "110924.982000", "111004.927000", "111004.930000", "111004.932000", "111004.935000", "111004.938000", "111004.940000", "111004.943000", "111004.945000", "111004.948000", "111004.955000", "111004.963000", "111004.966000", "111004.968000", "111004.971000", "111004.974000", "111004.976000", "111004.979000", "111004.982000", "111004.984000", "111004.987000", "111044.925000", "111044.928000", "111044.931000", "111044.934000", "111044.936000", "111044.939000", "111044.942000", "111044.944000", "111044.947000", "111044.950000", "111044.952000", "111044.955000", "111044.957000", "111044.960000", "111044.963000", "111044.965000", "111044.968000", "111044.971000", "111044.973000", "111044.976000", "111124.925000", "111124.928000", "111124.931000", "111124.934000", "111124.936000", "111124.939000", "111124.942000", "111124.944000", "111124.947000", "111124.949000", "111124.952000", "111124.955000", "111124.957000", "111124.960000", "111124.963000", "111124.965000", "111124.968000", "111124.971000", "111124.974000", "111124.976000", "111204.927000", "111204.930000", "111204.932000", "111204.935000", "111204.938000", "111204.940000", "111204.943000", "111204.945000", "111204.948000", "111204.951000", "111204.953000", "111204.956000", "111204.959000", "111204.961000", "111204.964000", "111204.967000", "111204.969000", "111204.972000", "111204.975000", "111204.977000", "111244.927000", "111244.929000", "111244.932000", "111244.935000", "111244.937000", "111244.940000", "111244.943000", "111244.945000", "111244.948000", "111244.950000", "111244.953000", "111244.956000", "111244.958000", "111244.961000", "111244.964000", "111244.966000", "111244.969000", "111244.972000", "111244.974000", "111244.977000", "111324.925000", "111324.928000", "111324.931000", "111324.934000", "111324.936000", "111324.939000", "111324.942000", "111324.944000", "111324.947000", "111324.950000", "111324.952000", "111324.955000", "111324.957000", "111324.960000", "111324.963000", "111324.965000", "111324.968000", "111324.971000", "111324.973000", "111324.976000", "111404.927000", "111404.930000", "111404.932000", "111404.935000", "111404.938000", "111404.940000", "111404.943000", "111404.945000", "111404.948000", "111404.951000", "111404.953000", "111404.956000", "111404.959000", "111404.961000", "111404.964000", "111404.967000", "111404.969000", "111404.972000", "111404.975000", "111404.977000", "111444.927000", "111444.929000", "111444.932000", "111444.935000", "111444.937000", "111444.940000", "111444.943000", "111444.945000", "111444.948000", "111444.950000", "111444.953000", "111444.956000", "111444.958000", "111444.961000", "111444.964000", "111444.966000", "111444.969000", "111444.972000", "111444.974000", "111444.977000", "111524.926000", "111524.935000", "111524.938000", "111524.940000", "111524.943000", "111524.945000", "111524.948000", "111524.951000", "111524.953000", "111524.956000", "111524.959000", "111524.961000", "111524.964000", "111524.967000", "111524.969000", "111524.988000", "111524.991000", "111524.994000", "111524.996000", "111525.000000", "111604.926000", "111604.928000", "111604.931000", "111604.934000", "111604.936000", "111604.939000", "111604.942000", "111604.944000", "111604.947000", "111604.950000", "111604.952000", "111604.955000", "111604.957000", "111604.960000", "111604.963000", "111604.965000", "111604.968000", "111604.970000", "111604.973000", "111604.976000", "111644.927000", "111644.929000", "111644.932000", "111644.935000", "111644.937000", "111644.940000", "111644.943000", "111644.958000", "111644.961000", "111644.964000", "111644.966000", "111644.969000", "111644.973000", "111644.975000", "111644.978000", "111644.980000", "111644.983000", "111644.986000", "111644.988000", "111644.991000", "111724.926000", "111724.928000", "111724.931000", "111724.934000", "111724.936000", "111724.939000", "111724.942000", "111724.944000", "111724.947000", "111724.950000", "111724.952000", "111724.955000", "111724.958000", "111724.960000", "111724.963000", "111724.965000", "111724.968000", "111724.971000", "111724.974000", "111724.976000", "111732.585000", "111732.588000", "111732.591000", "111732.593000"],
      "InstanceNumber": [1, 2, 3, 4, 5, 6, 7, 8, 9, 10, 11, 12, 13, 14, 15, 16, 17, 18, 19, 20, 21, 22, 23, 24, 25, 26, 27, 28, 29, 30, 31, 32, 33, 34, 35, 36, 37, 38, 39, 40, 41, 42, 43, 44, 45, 46, 47, 48, 49, 50, 51, 52, 53, 54, 55, 56, 57, 58, 59, 60, 61, 62, 63, 64, 65, 66, 67, 68, 69, 70, 71, 72, 73, 74, 75, 76, 77, 78, 79, 80, 81, 82, 83, 84, 85, 86, 87, 88, 89, 90, 91, 92, 93, 94, 95, 96, 97, 98, 99, 100, 101, 102, 103, 104, 105, 106, 107, 108, 109, 110, 111, 112, 113, 114, 115, 116, 117, 118, 119, 120, 121, 122, 123, 124, 125, 126, 127, 128, 129, 130, 131, 132, 133, 134, 135, 136, 137, 138, 139, 140, 141, 142, 143, 144, 145, 146, 147, 148, 149, 150, 151, 152, 153, 154, 155, 156, 157, 158, 159, 160, 161, 162, 163, 164, 165, 166, 167, 168, 169, 170, 171, 172, 173, 174, 175, 176, 177, 178, 179, 180, 181, 182, 183, 184, 185, 186, 187, 188, 189, 190, 191, 192, 193, 194, 195, 196, 197, 198, 199, 200, 201, 202, 203, 204, 205, 206, 207, 208, 209, 210, 211, 212, 213, 214, 215, 216, 217, 218, 219, 220, 221, 222, 223, 224, 225, 226, 227, 228, 229, 230, 231, 232, 233, 234, 235, 236, 237, 238, 239, 240, 241, 242, 243, 244, 245, 246, 247, 248, 249, 250, 251, 252, 253, 254, 255, 256, 257, 258, 259, 260, 261, 262, 263, 264, 265, 266, 267, 268, 269, 270, 271, 272, 273, 274, 275, 276, 277, 278, 279, 280, 281, 282, 283, 284, 285, 286, 287, 288, 289, 290, 291, 292, 293, 294, 295, 296, 297, 298, 299, 300, 301, 302, 303, 304, 305, 306, 307, 308, 309, 310, 311, 312, 313, 314, 315, 316, 317, 318, 319, 320, 321, 322, 323, 324, 325, 326, 327, 328, 329, 330, 331, 332, 333, 334, 335, 336, 337, 338, 339, 340, 341],
      "LargestImagePixelValue": [2520, 3304, 1843, 1905, 2017, 1887, 2604, 3013, 1771, 2335, 2658, 2045, 2469, 1970, 3326, 1831, 2358, 1797, 2568, 1845, 2761, 1948, 2687, 1879, 2564, 1979, 2522, 1963, 2722, 2054, 3218, 1877, 2245, 2107, 2378, 2248, 2205, 2174, 2056, 2234, 1964, 2469, 1942, 2608, 1908, 2253, 1852, 2685, 2008, 2459, 2437, 1817, 2453, 2077, 2378, 2286, 1862, 2393, 1790, 2778, 1954, 2635, 1852, 2689, 1789, 2228, 2405, 1808, 2284, 2659, 1787, 1968, 2416, 2419, 2068, 1942, 2176, 2427, 1994, 1843, 2059, 2351, 2416, 1866, 2066, 2269, 2244, 1832, 2284, 1834, 2117, 2941, 2042, 2523, 2606, 1977, 3010, 1809, 2098, 1874, 1942, 2465, 1831, 2366, 1754, 1807, 2842, 2714, 1935, 2804, 1832, 2147, 2919, 1998, 2267, 2773, 1755, 2182, 1897, 2107, 2896, 1851, 2092, 2669, 1855, 2565, 2051, 2499, 3276, 2807, 3321, 2024, 1814, 2392, 2219, 1840, 1880, 2459, 1823, 2383, 2099, 1901, 2494, 1824, 2625, 1960, 2709, 1775, 2421, 1977, 2627, 2045, 1809, 2575, 1849, 2433, 2091, 2146, 2393, 1819, 2186, 1988, 2671, 2462, 1840, 2360, 1787, 2142, 2476, 1829, 1911, 2406, 1952, 1859, 2375, 1798, 2180, 2876, 1866, 1783, 2813, 1833, 2559, 1829, 2509, 2859, 1831, 2665, 1871, 2248, 2234, 1763, 2272, 2392, 1960, 2455, 1854, 2054, 2769, 1856, 2585, 1781, 2128, 2461, 1815, 2298, 2596, 1993, 2284, 1794, 2098, 2664, 1852, 1783, 2203, 2504, 1830, 2333, 2802, 1810, 1932, 2346, 2152, 1796, 2277, 3192, 1809, 1913, 2376, 2126, 2766, 1999, 2897, 1801, 2044, 2361, 1972, 2556, 1947, 2589, 1841, 2166, 2824, 1871, 2216, 1796, 2739, 2907, 1846, 2181, 2710, 1857, 2138, 2702, 1835, 1961, 2699, 1792, 2170, 2620, 1879, 2757, 1910, 2740, 1886, 1841, 2794, 1785, 1976, 2517, 1835, 1918, 2415, 1829, 1863, 2249, 2606, 1797, 2334, 2515, 2010, 2555, 1791, 1844, 2534, 2461, 2024, 2383, 1806, 2118, 2786, 1870, 2732, 1796, 2048, 2689, 1937, 2060, 2312, 1836, 2736, 2803, 1838, 2328, 1822, 2158, 2741, 1836, 2203, 2606, 1876, 2236, 1862, 2569, 2514, 2093, 2471, 2142, 1798, 1949, 2005, 2261, 1887, 2196, 1823, 2617, 1817, 2726, 2012, 2779, 1739, 2000, 2394, 1831, 2639, 1775, 1989, 2068, 1883, 2705, 2115],
