{
  "AcquisitionMatrixPE": 70,
  "AcquisitionNumber": 1,
  "AcquisitionTime": "15:00:7.272500",
  "BandwidthPerPixelPhaseEncode": 51.948,
  "BaseResolution": 70,
  "BodyPartExamined": "HEAD",
  "CoilCombinationMethod": "Sum of Squares",
  "ConsistencyInfo": "N4_VE11C_LATEST_20160120",
  "ConversionSoftware": "dcm2niix",
  "ConversionSoftwareVersion": "v1.0.20220720",
  "DerivedVendorReportedEchoSpacing": 0.000550001,
  "DeviceSerialNumber": "66061",
  "DwellTime": 3.3e-06,
  "EchoTime": 0.022,
  "EchoTrainLength": 35,
  "EffectiveEchoSpacing": 0.000275,
  "FlipAngle": 90,
  "HeudiconvVersion": "1.1.1",
  "ImageOrientationPatientDICOM": [0.999931, 0.00291079, 0.0113399, -0.00122171, 0.989254, -0.146199],
  "ImageOrientationText": "Tra>Cor(-8.4)>Sag(0.7)",
  "ImageType": [
    "ORIGINAL",
    "PRIMARY",
    "M",
    "ND",
    "NORM",
    "MOSAIC"
],
  "ImagingFrequency": 123.255,
  "InPlanePhaseEncodingDirectionDICOM": "COL",
  "InstitutionAddress": "Street StreetNo,City/1c4204/,District,KR,ZIP",
  "InstitutionName": "SKKU",
  "InstitutionalDepartmentName": "Department",
  "MRAcquisitionType": "2D",
  "MagneticFieldStrength": 3,
  "Manufacturer": "Siemens",
  "ManufacturersModelName": "Prisma",
  "MatrixCoilMode": "GRAPPA",
  "Modality": "MR",
  "NonlinearGradientCorrection": false,
  "ParallelReductionFactorInPlane": 2,
  "PartialFourier": 1,
  "PatientPosition": "HFS",
  "PercentPhaseFOV": 100,
  "PercentSampling": 100,
  "PhaseEncodingDirection": "j-",
  "PhaseEncodingSteps": 70,
  "PhaseResolution": 1,
  "PixelBandwidth": 2165,
  "ProcedureStepDescription": "Head^PI:Others",
  "ProtocolName": "BOLD_ep2d_3x3x3_dimension1",
  "PulseSequenceDetails": "%SiemensSeq%\\ep2d_pace",
  "ReceiveCoilActiveElements": "HC1-7",
  "ReceiveCoilName": "HeadNeck_64",
  "ReconMatrixPE": 70,
  "RefLinesPE": 24,
  "RepetitionTime": 2,
  "SAR": 0.108013,
  "ScanOptions": "FS",
  "ScanningSequence": "EP",
  "SequenceName": "*epfid2d1_70",
  "SequenceVariant": "SK",
  "SeriesDescription": "BOLD_ep2d_3x3x3_dimension1",
  "SeriesNumber": 8,
  "ShimSetting": [5058, 3779, 4297, 229, -39, 18, -117, 32],
  "SliceThickness": 3,
  "SliceTiming": [0.99, 0, 1.0375, 0.0475, 1.085, 0.095, 1.1325, 0.1425, 1.18, 0.19, 1.225, 0.2375, 1.2725, 0.2825, 1.32, 0.33, 1.3675, 0.3775, 1.415, 0.425, 1.4625, 0.4725, 1.51, 0.52, 1.555, 0.565, 1.6025, 0.6125, 1.65, 0.66, 1.6975, 0.7075, 1.745, 0.755, 1.7925, 0.8025, 1.84, 0.85, 1.885, 0.895, 1.9325, 0.9425],
  "SoftwareVersions": "syngo MR E11",
  "SpacingBetweenSlices": 3,
  "StationName": "AWP66061",
  "TaskName": "dimension",
  "TotalReadoutTime": 0.018975,
  "TxRefAmp": 216.05,
  "dcmmeta_affine": [
    [-2.9997944831848145, -0.0036651205737143755, 0.03493092581629753, 109.21934509277344],
    [-0.00873236171901226, 2.9677634239196777, -0.43852484226226807, -89.21910858154297],
    [0.034019824117422104, 0.4385964572429657, 2.9675707817077637, -61.80692672729492],
    [0.0, 0.0, 0.0, 1.0]
],
  "dcmmeta_reorient_transform": [
    [0.0, -1.0, 0.0, 69.0],
    [1.0, 0.0, 0.0, 0.0],
    [0.0, 0.0, -1.0, 41.0],
    [0.0, 0.0, 0.0, 1.0]
],
  "dcmmeta_shape": [70, 70, 42, 437],
  "dcmmeta_slice_dim": 2,
  "dcmmeta_version": 0.6,
  "global": {
    "const": {
      "AcquisitionMatrix": [70, 0, 0, 70],
      "AngioFlag": "N",
      "BitsAllocated": 16,
      "BitsStored": 12,
      "BodyPartExamined": "HEAD",
      "Columns": 490,
      "EchoNumbers": 1,
      "EchoTime": 22.0,
      "EchoTrainLength": 35,
      "FlipAngle": 90.0,
      "HighBit": 11,
      "ImageOrientationPatient": [0.99993146417444, 0.00291078714567, 0.0113399414528, -0.0012217068888, 0.98925447322457, -0.1461988188648],
      "ImagePositionPatient": [-739.58576641546, -722.64116653692, 175.08772082065],
      "ImageType": [
        "ORIGINAL",
        "PRIMARY",
        "M",
        "ND",
        "NORM",
        "MOSAIC"
],
      "ImagedNucleus": "1H",
      "ImagingFrequency": 123.25462,
      "InPlanePhaseEncodingDirection": "COL",
      "MRAcquisitionType": "2D",
      "MagneticFieldStrength": 3.0,
      "Manufacturer": "SIEMENS",
      "ManufacturerModelName": "Prisma",
      "Modality": "MR",
      "NumberOfAverages": 1.0,
      "NumberOfPhaseEncodingSteps": 70,
      "PercentPhaseFieldOfView": 100.0,
      "PercentSampling": 100.0,
      "PerformedProcedureStepStartTime": "142035.510000",
      "PhotometricInterpretation": "MONOCHROME2",
      "PixelBandwidth": 2165.0,
      "PixelRepresentation": 0,
      "PixelSpacing": [3.0, 3.0],
      "ProtocolName": "BOLD_ep2d_3x3x3_dimension1",
      "RepetitionTime": 2000.0,
      "Rows": 490,
      "SAR": 0.10801298459878,
      "SamplesPerPixel": 1,
      "ScanOptions": "FS",
      "ScanningSequence": "EP",
      "SequenceName": "*epfid2d1_70",
      "SequenceVariant": "SK",
      "SeriesDescription": "BOLD_ep2d_3x3x3_dimension1",
      "SeriesNumber": 8,
      "SeriesTime": "150009.300000",
      "SliceLocation": 76.174501593903,
      "SliceThickness": 3.0,
      "SmallestImagePixelValue": 0,
      "SoftwareVersions": "syngo MR E11",
      "SpacingBetweenSlices": 3.0000000091063,
      "SpecificCharacterSet": "ISO_IR 100",
      "StudyID": "1",
      "StudyTime": "142035.435000",
      "TransmitCoilName": "Body",
      "VariableFlipAngleFlag": "N",
      "WindowCenterWidthExplanation": "Algo1",
      "dBdt": 0.0},
    "slices": {}
  },
  "time": {
    "samples": {
      "AcquisitionNumber": [1, 2, 3, 4, 5, 6, 7, 8, 9, 10, 11, 12, 13, 14, 15, 16, 17, 18, 19, 20, 21, 22, 23, 24, 25, 26, 27, 28, 29, 30, 31, 32, 33, 34, 35, 36, 37, 38, 39, 40, 41, 42, 43, 44, 45, 46, 47, 48, 49, 50, 51, 52, 53, 54, 55, 56, 57, 58, 59, 60, 61, 62, 63, 64, 65, 66, 67, 68, 69, 70, 71, 72, 73, 74, 75, 76, 77, 78, 79, 80, 81, 82, 83, 84, 85, 86, 87, 88, 89, 90, 91, 92, 93, 94, 95, 96, 97, 98, 99, 100, 101, 102, 103, 104, 105, 106, 107, 108, 109, 110, 111, 112, 113, 114, 115, 116, 117, 118, 119, 120, 121, 122, 123, 124, 125, 126, 127, 128, 129, 130, 131, 132, 133, 134, 135, 136, 137, 138, 139, 140, 141, 142, 143, 144, 145, 146, 147, 148, 149, 150, 151, 152, 153, 154, 155, 156, 157, 158, 159, 160, 161, 162, 163, 164, 165, 166, 167, 168, 169, 170, 171, 172, 173, 174, 175, 176, 177, 178, 179, 180, 181, 182, 183, 184, 185, 186, 187, 188, 189, 190, 191, 192, 193, 194, 195, 196, 197, 198, 199, 200, 201, 202, 203, 204, 205, 206, 207, 208, 209, 210, 211, 212, 213, 214, 215, 216, 217, 218, 219, 220, 221, 222, 223, 224, 225, 226, 227, 228, 229, 230, 231, 232, 233, 234, 235, 236, 237, 238, 239, 240, 241, 242, 243, 244, 245, 246, 247, 248, 249, 250, 251, 252, 253, 254, 255, 256, 257, 258, 259, 260, 261, 262, 263, 264, 265, 266, 267, 268, 269, 270, 271, 272, 273, 274, 275, 276, 277, 278, 279, 280, 281, 282, 283, 284, 285, 286, 287, 288, 289, 290, 291, 292, 293, 294, 295, 296, 297, 298, 299, 300, 301, 302, 303, 304, 305, 306, 307, 308, 309, 310, 311, 312, 313, 314, 315, 316, 317, 318, 319, 320, 321, 322, 323, 324, 325, 326, 327, 328, 329, 330, 331, 332, 333, 334, 335, 336, 337, 338, 339, 340, 341, 342, 343, 344, 345, 346, 347, 348, 349, 350, 351, 352, 353, 354, 355, 356, 357, 358, 359, 360, 361, 362, 363, 364, 365, 366, 367, 368, 369, 370, 371, 372, 373, 374, 375, 376, 377, 378, 379, 380, 381, 382, 383, 384, 385, 386, 387, 388, 389, 390, 391, 392, 393, 394, 395, 396, 397, 398, 399, 400, 401, 402, 403, 404, 405, 406, 407, 408, 409, 410, 411, 412, 413, 414, 415, 416, 417, 418, 419, 420, 421, 422, 423, 424, 425, 426, 427, 428, 429, 430, 431, 432, 433, 434, 435, 436, 437],
      "AcquisitionTime": ["150007.272500", "150009.272500", "150011.272500", "150013.272500", "150015.272500", "150017.272500", "150019.272500", "150021.272500", "150023.272500", "150025.272500", "150027.272500", "150029.272500", "150031.272500", "150033.272500", "150035.272500", "150037.272500", "150039.272500", "150041.272500", "150043.272500", "150045.272500", "150047.272500", "150049.272500", "150051.272500", "150053.272500", "150055.272500", "150057.272500", "150059.272500", "150101.272500", "150103.272500", "150105.272500", "150107.272500", "150109.272500", "150111.272500", "150113.272500", "150115.272500", "150117.272500", "150119.272500", "150121.272500", "150123.272500", "150125.272500", "150127.272500", "150129.272500", "150131.272500", "150133.272500", "150135.272500", "150137.272500", "150139.272500", "150141.272500", "150143.272500", "150145.272500", "150147.272500", "150149.272500", "150151.272500", "150153.272500", "150155.272500", "150157.272500", "150159.272500", "150201.272500", "150203.272500", "150205.272500", "150207.272500", "150209.272500", "150211.272500", "150213.272500", "150215.272500", "150217.272500", "150219.272500", "150221.272500", "150223.272500", "150225.272500", "150227.272500", "150229.272500", "150231.272500", "150233.272500", "150235.272500", "150237.272500", "150239.272500", "150241.272500", "150243.272500", "150245.272500", "150247.272500", "150249.272500", "150251.272500", "150253.272500", "150255.272500", "150257.272500", "150259.272500", "150301.272500", "150303.272500", "150305.272500", "150307.272500", "150309.272500", "150311.272500", "150313.272500", "150315.272500", "150317.272500", "150319.272500", "150321.272500", "150323.272500", "150325.272500", "150327.272500", "150329.272500", "150331.272500", "150333.272500", "150335.272500", "150337.272500", "150339.272500", "150341.272500", "150343.272500", "150345.272500", "150347.272500", "150349.272500", "150351.272500", "150353.272500", "150355.272500", "150357.272500", "150359.272500", "150401.272500", "150403.272500", "150405.272500", "150407.272500", "150409.272500", "150411.272500", "150413.272500", "150415.272500", "150417.272500", "150419.272500", "150421.272500", "150423.272500", "150425.272500", "150427.272500", "150429.272500", "150431.272500", "150433.272500", "150435.272500", "150437.272500", "150439.272500", "150441.272500", "150443.272500", "150445.272500", "150447.272500", "150449.272500", "150451.272500", "150453.272500", "150455.272500", "150457.272500", "150459.272500", "150501.272500", "150503.272500", "150505.272500", "150507.272500", "150509.272500", "150511.272500", "150513.272500", "150515.272500", "150517.272500", "150519.272500", "150521.272500", "150523.272500", "150525.272500", "150527.272500", "150529.272500", "150531.272500", "150533.272500", "150535.272500", "150537.272500", "150539.272500", "150541.272500", "150543.272500", "150545.272500", "150547.272500", "150549.272500", "150551.272500", "150553.272500", "150555.272500", "150557.272500", "150559.272500", "150601.272500", "150603.272500", "150605.272500", "150607.272500", "150609.272500", "150611.272500", "150613.272500", "150615.272500", "150617.272500", "150619.272500", "150621.272500", "150623.272500", "150625.272500", "150627.272500", "150629.272500", "150631.272500", "150633.272500", "150635.272500", "150637.272500", "150639.272500", "150641.272500", "150643.272500", "150645.272500", "150647.272500", "150649.272500", "150651.272500", "150653.272500", "150655.272500", "150657.272500", "150659.272500", "150701.272500", "150703.272500", "150705.272500", "150707.272500", "150709.272500", "150711.272500", "150713.272500", "150715.272500", "150717.272500", "150719.272500", "150721.272500", "150723.272500", "150725.272500", "150727.272500", "150729.272500", "150731.272500", "150733.272500", "150735.272500", "150737.272500", "150739.272500", "150741.272500", "150743.272500", "150745.272500", "150747.272500", "150749.272500", "150751.272500", "150753.272500", "150755.272500", "150757.272500", "150759.272500", "150801.272500", "150803.272500", "150805.272500", "150807.272500", "150809.272500", "150811.272500", "150813.272500", "150815.272500", "150817.272500", "150819.272500", "150821.272500", "150823.272500", "150825.272500", "150827.272500", "150829.272500", "150831.272500", "150833.272500", "150835.272500", "150837.272500", "150839.272500", "150841.272500", "150843.272500", "150845.272500", "150847.272500", "150849.272500", "150851.272500", "150853.272500", "150855.272500", "150857.272500", "150859.272500", "150901.272500", "150903.272500", "150905.272500", "150907.272500", "150909.272500", "150911.272500", "150913.272500", "150915.272500", "150917.272500", "150919.272500", "150921.272500", "150923.272500", "150925.272500", "150927.272500", "150929.272500", "150931.272500", "150933.272500", "150935.272500", "150937.272500", "150939.272500", "150941.272500", "150943.272500", "150945.272500", "150947.272500", "150949.272500", "150951.272500", "150953.272500", "150955.272500", "150957.272500", "150959.272500", "151001.272500", "151003.272500", "151005.272500", "151007.272500", "151009.272500", "151011.272500", "151013.272500", "151015.272500", "151017.272500", "151019.272500", "151021.272500", "151023.272500", "151025.272500", "151027.272500", "151029.272500", "151031.272500", "151033.272500", "151035.272500", "151037.272500", "151039.272500", "151041.272500", "151043.272500", "151045.272500", "151047.272500", "151049.272500", "151051.272500", "151053.272500", "151055.272500", "151057.272500", "151059.272500", "151101.272500", "151103.272500", "151105.272500", "151107.272500", "151109.272500", "151111.272500", "151113.272500", "151115.272500", "151117.272500", "151119.272500", "151121.272500", "151123.272500", "151125.272500", "151127.272500", "151129.272500", "151131.272500", "151133.272500", "151135.272500", "151137.272500", "151139.272500", "151141.272500", "151143.272500", "151145.272500", "151147.272500", "151149.272500", "151151.272500", "151153.272500", "151155.272500", "151157.272500", "151159.272500", "151201.272500", "151203.272500", "151205.272500", "151207.272500", "151209.272500", "151211.272500", "151213.272500", "151215.272500", "151217.272500", "151219.272500", "151221.272500", "151223.272500", "151225.272500", "151227.272500", "151229.272500", "151231.272500", "151233.272500", "151235.272500", "151237.272500", "151239.272500", "151241.272500", "151243.272500", "151245.272500", "151247.272500", "151249.272500", "151251.272500", "151253.272500", "151255.272500", "151257.272500", "151259.272500", "151301.272500", "151303.272500", "151305.272500", "151307.272500", "151309.272500", "151311.272500", "151313.272500", "151315.272500", "151317.272500", "151319.272500", "151321.272500", "151323.272500", "151325.272500", "151327.272500", "151329.272500", "151331.272500", "151333.272500", "151335.272500", "151337.272500", "151339.272500", "151341.272500", "151343.272500", "151345.272500", "151347.272500", "151349.272500", "151351.272500", "151353.272500", "151355.272500", "151357.272500", "151359.272500", "151401.272500", "151403.272500", "151405.272500", "151407.272500", "151409.272500", "151411.272500", "151413.272500", "151415.272500", "151417.272500", "151419.272500", "151421.272500", "151423.272500", "151425.272500", "151427.272500", "151429.272500", "151431.272500", "151433.272500", "151435.272500", "151437.272500", "151439.272500"],
      "ContentTime": ["150009.303000", "150010.798000", "150012.798000", "150014.798000", "150016.798000", "150018.798000", "150021.299000", "150022.797000", "150024.798000", "150026.798000", "150028.798000", "150031.299000", "150032.798000", "150034.798000", "150037.299000", "150038.799000", "150040.798000", "150042.799000", "150044.798000", "150046.798000", "150049.299000", "150050.798000", "150052.799000", "150054.798000", "150056.798000", "150058.797000", "150100.798000", "150102.799000", "150104.798000", "150106.799000", "150108.799000", "150110.799000", "150112.799000", "150114.798000", "150117.299000", "150118.799000", "150120.798000", "150122.799000", "150124.798000", "150126.798000", "150128.799000", "150130.798000", "150132.797000", "150134.799000", "150136.799000", "150138.798000", "150140.799000", "150142.798000", "150144.810000", "150146.799000", "150148.799000", "150150.798000", "150152.798000", "150154.799000", "150156.798000", "150158.799000", "150200.798000", "150202.799000", "150204.801000", "150206.798000", "150208.798000", "150210.799000", "150212.799000", "150214.798000", "150216.799000", "150218.799000", "150220.798000", "150222.799000", "150224.798000", "150227.299000", "150228.799000", "150230.799000", "150232.798000", "150234.798000", "150236.798000", "150238.798000", "150240.799000", "150242.798000", "150244.799000", "150246.798000", "150248.799000", "150250.799000", "150252.799000", "150254.799000", "150256.799000", "150258.798000", "150300.798000", "150302.799000", "150304.798000", "150306.799000", "150308.799000", "150310.799000", "150312.799000", "150314.798000", "150316.798000", "150318.798000", "150320.799000", "150322.799000", "150324.799000", "150326.799000", "150328.798000", "150330.799000", "150332.799000", "150334.797000", "150336.798000", "150338.799000", "150340.799000", "150342.799000", "150344.799000", "150346.799000", "150348.799000", "150350.799000", "150352.797000", "150354.799000", "150356.798000", "150358.799000", "150400.799000", "150402.799000", "150404.799000", "150406.799000", "150408.799000", "150410.798000", "150412.799000", "150414.799000", "150416.799000", "150418.799000", "150420.799000", "150422.799000", "150424.798000", "150426.797000", "150428.799000", "150430.799000", "150432.799000", "150434.799000", "150436.799000", "150438.798000", "150440.799000", "150442.798000", "150444.797000", "150446.798000", "150448.798000", "150450.799000", "150452.798000", "150454.798000", "150456.798000", "150458.798000", "150500.799000", "150502.797000", "150504.799000", "150506.799000", "150508.799000", "150510.799000", "150512.799000", "150514.799000", "150516.799000", "150518.798000", "150520.798000", "150522.799000", "150524.798000", "150526.798000", "150528.798000", "150530.799000", "150532.799000", "150534.799000", "150536.798000", "150538.799000", "150540.798000", "150542.798000", "150544.798000", "150546.798000", "150548.798000", "150550.798000", "150552.798000", "150554.798000", "150556.798000", "150558.799000", "150600.798000", "150602.799000", "150604.799000", "150606.798000", "150608.799000", "150610.798000", "150612.798000", "150614.798000", "150616.798000", "150618.799000", "150620.799000", "150622.799000", "150624.799000", "150626.799000", "150628.799000", "150630.798000", "150632.799000", "150634.799000", "150636.799000", "150638.799000", "150640.799000", "150642.799000", "150644.799000", "150646.798000", "150648.799000", "150650.799000", "150652.799000", "150654.799000", "150656.799000", "150658.799000", "150700.799000", "150702.799000", "150704.798000", "150706.799000", "150708.799000", "150710.799000", "150712.799000", "150714.799000", "150716.799000", "150718.799000", "150720.799000", "150722.798000", "150724.799000", "150726.799000", "150728.799000", "150730.799000", "150732.799000", "150734.799000", "150736.799000", "150738.798000", "150740.798000", "150742.799000", "150744.799000", "150746.799000", "150748.799000", "150750.799000", "150752.799000", "150754.799000", "150756.798000", "150758.799000", "150800.799000", "150802.799000", "150804.799000", "150806.799000", "150808.799000", "150810.799000", "150812.799000", "150814.798000", "150816.799000", "150818.799000", "150820.799000", "150822.799000", "150824.799000", "150826.799000", "150828.799000", "150830.799000", "150832.800000", "150834.799000", "150836.799000", "150838.799000", "150840.799000", "150842.799000", "150844.799000", "150846.799000", "150848.798000", "150850.798000", "150852.799000", "150854.799000", "150856.799000", "150858.799000", "150900.799000", "150902.799000", "150904.799000", "150906.798000", "150908.799000", "150910.799000", "150912.799000", "150914.799000", "150916.799000", "150918.799000", "150920.799000", "150922.799000", "150924.798000", "150926.799000", "150928.799000", "150930.799000", "150932.799000", "150934.799000", "150936.799000", "150938.799000", "150940.799000", "150942.798000", "150944.799000", "150946.799000", "150948.799000", "150950.799000", "150952.812000", "150954.799000", "150956.799000", "150958.798000", "151000.798000", "151002.799000", "151004.799000", "151006.799000", "151008.799000", "151010.799000", "151012.799000", "151014.799000", "151016.798000", "151018.799000", "151020.799000", "151022.799000", "151024.799000", "151026.799000", "151028.799000", "151030.799000", "151032.799000", "151034.798000", "151036.799000", "151038.799000", "151040.799000", "151042.799000", "151044.799000", "151046.799000", "151048.799000", "151050.799000", "151052.798000", "151054.799000", "151056.799000", "151058.799000", "151100.799000", "151102.801000", "151104.799000", "151106.799000", "151108.798000", "151110.798000", "151112.799000", "151114.799000", "151116.799000", "151118.799000", "151120.799000", "151122.799000", "151124.799000", "151126.798000", "151128.799000", "151130.799000", "151132.799000", "151134.799000", "151136.799000", "151138.799000", "151140.799000", "151142.799000", "151144.798000", "151146.799000", "151148.799000", "151150.799000", "151152.799000", "151154.799000", "151156.799000", "151158.799000", "151200.799000", "151202.798000", "151204.799000", "151206.799000", "151208.799000", "151210.799000", "151212.799000", "151214.799000", "151216.799000", "151218.798000", "151220.799000", "151222.799000", "151224.799000", "151226.799000", "151228.799000", "151230.803000", "151232.799000", "151234.799000", "151236.798000", "151238.799000", "151240.799000", "151242.799000", "151244.799000", "151246.799000", "151248.799000", "151250.799000", "151252.799000", "151254.798000", "151256.799000", "151258.799000", "151300.799000", "151302.799000", "151304.799000", "151306.799000", "151308.799000", "151310.799000", "151312.798000", "151314.799000", "151316.799000", "151318.799000", "151320.799000", "151322.799000", "151324.799000", "151326.799000", "151328.798000", "151330.799000", "151332.799000", "151334.799000", "151336.799000", "151338.799000", "151340.799000", "151342.799000", "151344.799000", "151346.798000", "151348.799000", "151350.799000", "151352.799000", "151354.799000", "151356.799000", "151358.799000", "151400.799000", "151402.799000", "151404.798000", "151406.799000", "151408.799000", "151410.799000", "151412.799000", "151414.799000", "151416.799000", "151418.799000", "151420.799000", "151422.798000", "151424.799000", "151426.799000", "151428.799000", "151430.799000", "151432.799000", "151434.799000", "151436.819000", "151438.798000", "151440.791000"],
      "DataSetTrailingPadding": [
        "\u0000\u0000\u0000\u0000\u0000\u0000\u0000\u0000\u0000\u0000\u0000\u0000\u0000\u0000\u0000\u0000\u0000\u0000\u0000\u0000\u0000\u0000\u0000\u0000\u0000\u0000\u0000\u0000\u0000\u0000\u0000\u0000\u0000\u0000\u0000\u0000\u0000\u0000\u0000\u0000\u0000\u0000\u0000\u0000\u0000\u0000\u0000\u0000\u0000\u0000\u0000\u0000\u0000\u0000\u0000\u0000\u0000\u0000\u0000\u0000\u0000\u0000\u0000\u0000\u0000\u0000\u0000\u0000\u0000\u0000\u0000\u0000\u0000\u0000\u0000\u0000\u0000\u0000\u0000\u0000\u0000\u0000\u0000\u0000\u0000\u0000\u0000\u0000\u0000\u0000\u0000\u0000\u0000\u0000\u0000\u0000\u0000\u0000\u0000\u0000\u0000\u0000\u0000\u0000\u0000\u0000\u0000\u0000\u0000\u0000\u0000\u0000\u0000\u0000\u0000\u0000\u0000\u0000\u0000\u0000\u0000\u0000\u0000\u0000\u0000\u0000\u0000\u0000\u0000\u0000\u0000\u0000\u0000\u0000\u0000\u0000\u0000\u0000\u0000\u0000\u0000\u0000\u0000\u0000\u0000\u0000\u0000\u0000\u0000\u0000\u0000\u0000\u0000\u0000\u0000\u0000\u0000\u0000\u0000\u0000\u0000\u0000\u0000\u0000\u0000\u0000\u0000\u0000\u0000\u0000\u0000\u0000\u0000\u0000\u0000\u0000\u0000\u0000\u0000\u0000\u0000\u0000\u0000\u0000\u0000\u0000\u0000\u0000\u0000\u0000\u0000\u0000\u0000\u0000\u0000\u0000\u0000\u0000\u0000\u0000\u0000\u0000\u0000\u0000\u0000\u0000\u0000\u0000\u0000\u0000\u0000\u0000\u0000\u0000\u0000\u0000\u0000\u0000\u0000\u0000\u0000\u0000\u0000\u0000\u0000\u0000\u0000\u0000\u0000\u0000\u0000\u0000\u0000\u0000\u0000\u0000\u0000\u0000\u0000\u0000\u0000\u0000\u0000\u0000\u0000\u0000\u0000\u0000\u0000\u0000\u0000\u0000\u0000\u0000\u0000\u0000\u0000\u0000\u0000\u0000\u0000\u0000\u0000\u0000\u0000\u0000\u0000\u0000\u0000\u0000\u0000\u0000\u0000\u0000\u0000\u0000\u0000\u0000\u0000\u0000\u0000\u0000\u0000\u0000\u0000\u0000\u0000\u0000\u0000\u0000\u0000\u0000\u0000\u0000\u0000\u0000\u0000\u0000\u0000\u0000\u0000\u0000\u0000\u0000\u0000\u0000\u0000\u0000\u0000\u0000\u0000\u0000\u0000\u0000",
        "\u0000\u0000\u0000\u0000\u0000\u0000\u0000\u0000\u0000\u0000\u0000\u0000\u0000\u0000\u0000\u0000\u0000\u0000\u0000\u0000\u0000\u0000\u0000\u0000\u0000\u0000\u0000\u0000\u0000\u0000\u0000\u0000\u0000\u0000\u0000\u0000\u0000\u0000\u0000\u0000\u0000\u0000\u0000\u0000\u0000\u0000\u0000\u0000\u0000\u0000\u0000\u0000\u0000\u0000\u0000\u0000\u0000\u0000\u0000\u0000\u0000\u0000\u0000\u0000\u0000\u0000\u0000\u0000\u0000\u0000\u0000\u0000\u0000\u0000\u0000\u0000\u0000\u0000\u0000\u0000\u0000\u0000\u0000\u0000\u0000\u0000\u0000\u0000\u0000\u0000\u0000\u0000\u0000\u0000\u0000\u0000\u0000\u0000\u0000\u0000\u0000\u0000\u0000\u0000\u0000\u0000\u0000\u0000\u0000\u0000\u0000\u0000\u0000\u0000\u0000\u0000\u0000\u0000\u0000\u0000\u0000\u0000\u0000\u0000\u0000\u0000\u0000\u0000\u0000\u0000\u0000\u0000\u0000\u0000\u0000\u0000\u0000\u0000\u0000\u0000\u0000\u0000\u0000\u0000\u0000\u0000\u0000\u0000\u0000\u0000\u0000\u0000\u0000\u0000\u0000\u0000\u0000\u0000\u0000\u0000\u0000\u0000\u0000\u0000\u0000\u0000\u0000\u0000\u0000\u0000\u0000\u0000\u0000\u0000\u0000\u0000\u0000\u0000\u0000\u0000\u0000\u0000\u0000\u0000\u0000\u0000\u0000\u0000\u0000\u0000\u0000\u0000\u0000\u0000\u0000\u0000\u0000\u0000\u0000\u0000\u0000\u0000\u0000\u0000\u0000\u0000\u0000\u0000\u0000\u0000\u0000\u0000\u0000\u0000\u0000\u0000\u0000\u0000\u0000\u0000\u0000\u0000\u0000\u0000\u0000\u0000\u0000\u0000\u0000\u0000\u0000\u0000\u0000\u0000\u0000\u0000\u0000\u0000\u0000\u0000\u0000\u0000\u0000\u0000\u0000\u0000\u0000\u0000\u0000\u0000\u0000\u0000\u0000\u0000\u0000\u0000\u0000\u0000\u0000\u0000\u0000\u0000\u0000\u0000\u0000\u0000\u0000\u0000\u0000\u0000\u0000\u0000\u0000\u0000\u0000\u0000\u0000\u0000\u0000\u0000\u0000\u0000\u0000\u0000\u0000\u0000\u0000\u0000\u0000\u0000\u0000\u0000\u0000\u0000\u0000\u0000\u0000\u0000\u0000\u0000\u0000\u0000\u0000\u0000\u0000\u0000\u0000\u0000\u0000\u0000\u0000\u0000",
        "\u0000\u0000\u0000\u0000\u0000\u0000\u0000\u0000\u0000\u0000\u0000\u0000\u0000\u0000\u0000\u0000\u0000\u0000\u0000\u0000\u0000\u0000\u0000\u0000\u0000\u0000\u0000\u0000\u0000\u0000\u0000\u0000\u0000\u0000\u0000\u0000\u0000\u0000\u0000\u0000\u0000\u0000\u0000\u0000\u0000\u0000\u0000\u0000\u0000\u0000\u0000\u0000\u0000\u0000\u0000\u0000\u0000\u0000\u0000\u0000\u0000\u0000\u0000\u0000\u0000\u0000\u0000\u0000\u0000\u0000\u0000\u0000\u0000\u0000\u0000\u0000\u0000\u0000\u0000\u0000\u0000\u0000\u0000\u0000\u0000\u0000\u0000\u0000\u0000\u0000\u0000\u0000\u0000\u0000\u0000\u0000\u0000\u0000\u0000\u0000\u0000\u0000\u0000\u0000\u0000\u0000\u0000\u0000\u0000\u0000\u0000\u0000\u0000\u0000\u0000\u0000\u0000\u0000\u0000\u0000\u0000\u0000\u0000\u0000\u0000\u0000\u0000\u0000\u0000\u0000\u0000\u0000\u0000\u0000\u0000\u0000\u0000\u0000\u0000\u0000\u0000\u0000\u0000\u0000\u0000\u0000\u0000\u0000\u0000\u0000\u0000\u0000\u0000\u0000\u0000\u0000\u0000\u0000\u0000\u0000\u0000\u0000\u0000\u0000\u0000\u0000\u0000\u0000\u0000\u0000\u0000\u0000\u0000\u0000\u0000\u0000\u0000\u0000\u0000\u0000\u0000\u0000\u0000\u0000\u0000\u0000\u0000\u0000\u0000\u0000\u0000\u0000\u0000\u0000\u0000\u0000\u0000\u0000\u0000\u0000\u0000\u0000\u0000\u0000\u0000\u0000\u0000\u0000\u0000\u0000\u0000\u0000\u0000\u0000\u0000\u0000\u0000\u0000\u0000\u0000\u0000\u0000\u0000\u0000\u0000\u0000\u0000\u0000\u0000\u0000\u0000\u0000\u0000\u0000\u0000\u0000\u0000\u0000\u0000\u0000\u0000\u0000\u0000\u0000\u0000\u0000\u0000\u0000\u0000\u0000\u0000\u0000\u0000\u0000\u0000\u0000\u0000\u0000\u0000\u0000\u0000\u0000\u0000\u0000\u0000\u0000\u0000\u0000\u0000\u0000\u0000\u0000\u0000\u0000\u0000\u0000\u0000\u0000\u0000\u0000\u0000\u0000\u0000\u0000\u0000\u0000\u0000\u0000\u0000\u0000\u0000\u0000\u0000\u0000\u0000\u0000\u0000\u0000\u0000\u0000\u0000\u0000\u0000\u0000\u0000\u0000\u0000\u0000\u0000\u0000\u0000\u0000",
        "\u0000\u0000\u0000\u0000\u0000\u0000\u0000\u0000\u0000\u0000\u0000\u0000\u0000\u0000\u0000\u0000\u0000\u0000\u0000\u0000\u0000\u0000\u0000\u0000\u0000\u0000\u0000\u0000\u0000\u0000\u0000\u0000\u0000\u0000\u0000\u0000\u0000\u0000\u0000\u0000\u0000\u0000\u0000\u0000\u0000\u0000\u0000\u0000\u0000\u0000\u0000\u0000\u0000\u0000\u0000\u0000\u0000\u0000\u0000\u0000\u0000\u0000\u0000\u0000\u0000\u0000\u0000\u0000\u0000\u0000\u0000\u0000\u0000\u0000\u0000\u0000\u0000\u0000\u0000\u0000\u0000\u0000\u0000\u0000\u0000\u0000\u0000\u0000\u0000\u0000\u0000\u0000\u0000\u0000\u0000\u0000\u0000\u0000\u0000\u0000\u0000\u0000\u0000\u0000\u0000\u0000\u0000\u0000\u0000\u0000\u0000\u0000\u0000\u0000\u0000\u0000\u0000\u0000\u0000\u0000\u0000\u0000\u0000\u0000\u0000\u0000\u0000\u0000\u0000\u0000\u0000\u0000\u0000\u0000\u0000\u0000\u0000\u0000\u0000\u0000\u0000\u0000\u0000\u0000\u0000\u0000\u0000\u0000\u0000\u0000\u0000\u0000\u0000\u0000\u0000\u0000\u0000\u0000\u0000\u0000\u0000\u0000\u0000\u0000\u0000\u0000\u0000\u0000\u0000\u0000\u0000\u0000\u0000\u0000\u0000\u0000\u0000\u0000\u0000\u0000\u0000\u0000\u0000\u0000\u0000\u0000\u0000\u0000\u0000\u0000\u0000\u0000\u0000\u0000\u0000\u0000\u0000\u0000\u0000\u0000\u0000\u0000\u0000\u0000\u0000\u0000\u0000\u0000\u0000\u0000\u0000\u0000\u0000\u0000\u0000\u0000\u0000\u0000\u0000\u0000\u0000\u0000\u0000\u0000\u0000\u0000\u0000\u0000\u0000\u0000\u0000\u0000\u0000\u0000\u0000\u0000\u0000\u0000\u0000\u0000\u0000\u0000\u0000\u0000\u0000\u0000\u0000\u0000\u0000\u0000\u0000\u0000\u0000\u0000\u0000\u0000\u0000\u0000\u0000\u0000\u0000\u0000\u0000\u0000\u0000\u0000\u0000\u0000\u0000\u0000\u0000\u0000\u0000\u0000\u0000\u0000\u0000\u0000\u0000\u0000\u0000\u0000\u0000\u0000\u0000\u0000\u0000\u0000\u0000\u0000\u0000\u0000\u0000\u0000\u0000\u0000\u0000\u0000\u0000\u0000\u0000\u0000\u0000\u0000\u0000\u0000\u0000\u0000\u0000\u0000\u0000\u0000",
