{
  "AcquisitionMatrixPE": 70,
  "AcquisitionNumber": 1,
  "AcquisitionTime": "15:24:9.410000",
  "BandwidthPerPixelPhaseEncode": 51.948,
  "BaseResolution": 70,
  "BodyPartExamined": "HEAD",
  "CoilCombinationMethod": "Sum of Squares",
  "ConsistencyInfo": "N4_VE11C_LATEST_20160120",
  "ConversionSoftware": "dcm2niix",
  "ConversionSoftwareVersion": "v1.0.20220720",
  "DerivedVendorReportedEchoSpacing": 0.000550001,
  "DeviceSerialNumber": "66061",
  "DwellTime": 3.3e-06,
  "EchoTime": 0.022,
  "EchoTrainLength": 35,
  "EffectiveEchoSpacing": 0.000275,
  "FlipAngle": 90,
  "HeudiconvVersion": "1.1.1",
  "ImageOrientationPatientDICOM": [0.999014, 0.00686128, 0.0438532, -0.00122051, 0.991853, -0.127382],
  "ImageOrientationText": "Tra>Cor(-7.3)>Sag(2.5)",
  "ImageType": [
    "ORIGINAL",
    "PRIMARY",
    "M",
    "ND",
    "NORM",
    "MOSAIC"
],
  "ImagingFrequency": 123.255,
  "InPlanePhaseEncodingDirectionDICOM": "COL",
  "InstitutionAddress": "Street StreetNo,City/1c4204/,District,KR,ZIP",
  "InstitutionName": "SKKU",
  "InstitutionalDepartmentName": "Department",
  "MRAcquisitionType": "2D",
  "MagneticFieldStrength": 3,
  "Manufacturer": "Siemens",
  "ManufacturersModelName": "Prisma",
  "MatrixCoilMode": "GRAPPA",
  "Modality": "MR",
  "NonlinearGradientCorrection": false,
  "ParallelReductionFactorInPlane": 2,
  "PartialFourier": 1,
  "PatientPosition": "HFS",
  "PercentPhaseFOV": 100,
  "PercentSampling": 100,
  "PhaseEncodingDirection": "j-",
  "PhaseEncodingSteps": 70,
  "PhaseResolution": 1,
  "PixelBandwidth": 2165,
  "ProcedureStepDescription": "Head^PI:Others",
  "ProtocolName": "BOLD_ep2d_3x3x3_response1",
  "PulseSequenceDetails": "%SiemensSeq%\\ep2d_pace",
  "ReceiveCoilActiveElements": "HC1-7",
  "ReceiveCoilName": "HeadNeck_64",
  "ReconMatrixPE": 70,
  "RefLinesPE": 24,
  "RepetitionTime": 2,
  "SAR": 0.0987397,
  "ScanOptions": "FS",
  "ScanningSequence": "EP",
  "SequenceName": "*epfid2d1_70",
  "SequenceVariant": "SK",
  "SeriesDescription": "BOLD_ep2d_3x3x3_response1",
  "SeriesNumber": 13,
  "ShimSetting": [5062, 3705, 4418, 371, -28, -50, -10, 11],
  "SliceThickness": 3,
  "SliceTiming": [0.99, 0, 1.0375, 0.0475, 1.085, 0.095, 1.1325, 0.1425, 1.18, 0.19, 1.2275, 0.2375, 1.2725, 0.2825, 1.32, 0.33, 1.3675, 0.3775, 1.415, 0.425, 1.4625, 0.4725, 1.51, 0.52, 1.5575, 0.5675, 1.6025, 0.6125, 1.65, 0.66, 1.6975, 0.7075, 1.745, 0.755, 1.7925, 0.8025, 1.84, 0.85, 1.8875, 0.8975, 1.9325, 0.9425],
  "SoftwareVersions": "syngo MR E11",
  "SpacingBetweenSlices": 3,
  "StationName": "AWP66061",
  "TaskName": "response",
  "TotalReadoutTime": 0.018975,
  "TxRefAmp": 211.981,
  "dcmmeta_affine": [
    [-2.9970433712005615, -0.0036615156568586826, 0.1331096887588501, 106.97901916503906],
    [-0.020583851262927055, 2.9755592346191406, -0.3816072940826416, -93.25296020507812],
    [0.13155950605869293, 0.3821445107460022, 2.972651481628418, -61.60269546508789],
    [0.0, 0.0, 0.0, 1.0]
],
  "dcmmeta_reorient_transform": [
    [0.0, -1.0, 0.0, 69.0],
    [1.0, 0.0, 0.0, 0.0],
    [0.0, 0.0, -1.0, 41.0],
    [0.0, 0.0, 0.0, 1.0]
],
  "dcmmeta_shape": [70, 70, 42, 341],
  "dcmmeta_slice_dim": 2,
  "dcmmeta_version": 0.6,
  "global": {
    "const": {
      "AcquisitionMatrix": [70, 0, 0, 70],
      "AngioFlag": "N",
      "BitsAllocated": 16,
      "BitsStored": 12,
      "BodyPartExamined": "HEAD",
      "Columns": 490,
      "EchoNumbers": 1,
      "EchoTime": 22.0,
      "EchoTrainLength": 35,
      "FlipAngle": 90.0,
      "HighBit": 11,
      "ImageOrientationPatient": [0.99901442557498, 0.00686128345912, 0.04385316730173, -0.0012205052077, 0.99185304445859, -0.1273815079407],
      "ImagePositionPatient": [-740.7940392634, -725.60474701531, 139.26684263774],
      "ImageType": [
        "ORIGINAL",
        "PRIMARY",
        "M",
        "ND",
        "NORM",
        "MOSAIC"
],
      "ImagedNucleus": "1H",
      "ImagingFrequency": 123.254657,
      "InPlanePhaseEncodingDirection": "COL",
      "MRAcquisitionType": "2D",
      "MagneticFieldStrength": 3.0,
      "Manufacturer": "SIEMENS",
      "ManufacturerModelName": "Prisma",
      "Modality": "MR",
      "NumberOfAverages": 1.0,
      "NumberOfPhaseEncodingSteps": 70,
      "PercentPhaseFieldOfView": 100.0,
      "PercentSampling": 100.0,
      "PerformedProcedureStepStartTime": "142205.024000",
      "PhotometricInterpretation": "MONOCHROME2",
      "PixelBandwidth": 2165.0,
      "PixelRepresentation": 0,
      "PixelSpacing": [3.0, 3.0],
      "ProtocolName": "BOLD_ep2d_3x3x3_response1",
      "RepetitionTime": 2000.0,
      "Rows": 490,
      "SAR": 0.09873970513305,
      "SamplesPerPixel": 1,
      "ScanOptions": "FS",
      "ScanningSequence": "EP",
      "SequenceName": "*epfid2d1_70",
      "SequenceVariant": "SK",
      "SeriesDescription": "BOLD_ep2d_3x3x3_response1",
      "SeriesNumber": 13,
      "SeriesTime": "152507.712000",
      "SliceLocation": 78.567529572124,
      "SliceThickness": 3.0,
      "SmallestImagePixelValue": 0,
      "SoftwareVersions": "syngo MR E11",
      "SpacingBetweenSlices": 2.9999998847701,
      "SpecificCharacterSet": "ISO_IR 100",
      "StudyID": "1",
      "StudyTime": "142204.957000",
      "TransmitCoilName": "Body",
      "VariableFlipAngleFlag": "N",
      "WindowCenterWidthExplanation": "Algo1",
      "dBdt": 0.0},
    "slices": {}
  },
  "time": {
    "samples": {
      "AcquisitionNumber": [1, 2, 3, 4, 5, 6, 7, 8, 9, 10, 11, 12, 13, 14, 15, 16, 17, 18, 19, 20, 21, 22, 23, 24, 25, 26, 27, 28, 29, 30, 31, 32, 33, 34, 35, 36, 37, 38, 39, 40, 41, 42, 43, 44, 45, 46, 47, 48, 49, 50, 51, 52, 53, 54, 55, 56, 57, 58, 59, 60, 61, 62, 63, 64, 65, 66, 67, 68, 69, 70, 71, 72, 73, 74, 75, 76, 77, 78, 79, 80, 81, 82, 83, 84, 85, 86, 87, 88, 89, 90, 91, 92, 93, 94, 95, 96, 97, 98, 99, 100, 101, 102, 103, 104, 105, 106, 107, 108, 109, 110, 111, 112, 113, 114, 115, 116, 117, 118, 119, 120, 121, 122, 123, 124, 125, 126, 127, 128, 129, 130, 131, 132, 133, 134, 135, 136, 137, 138, 139, 140, 141, 142, 143, 144, 145, 146, 147, 148, 149, 150, 151, 152, 153, 154, 155, 156, 157, 158, 159, 160, 161, 162, 163, 164, 165, 166, 167, 168, 169, 170, 171, 172, 173, 174, 175, 176, 177, 178, 179, 180, 181, 182, 183, 184, 185, 186, 187, 188, 189, 190, 191, 192, 193, 194, 195, 196, 197, 198, 199, 200, 201, 202, 203, 204, 205, 206, 207, 208, 209, 210, 211, 212, 213, 214, 215, 216, 217, 218, 219, 220, 221, 222, 223, 224, 225, 226, 227, 228, 229, 230, 231, 232, 233, 234, 235, 236, 237, 238, 239, 240, 241, 242, 243, 244, 245, 246, 247, 248, 249, 250, 251, 252, 253, 254, 255, 256, 257, 258, 259, 260, 261, 262, 263, 264, 265, 266, 267, 268, 269, 270, 271, 272, 273, 274, 275, 276, 277, 278, 279, 280, 281, 282, 283, 284, 285, 286, 287, 288, 289, 290, 291, 292, 293, 294, 295, 296, 297, 298, 299, 300, 301, 302, 303, 304, 305, 306, 307, 308, 309, 310, 311, 312, 313, 314, 315, 316, 317, 318, 319, 320, 321, 322, 323, 324, 325, 326, 327, 328, 329, 330, 331, 332, 333, 334, 335, 336, 337, 338, 339, 340, 341],
      "AcquisitionTime": ["152409.410000", "152411.410000", "152413.410000", "152415.410000", "152417.410000", "152419.410000", "152421.410000", "152423.410000", "152425.410000", "152427.410000", "152429.410000", "152431.410000", "152433.410000", "152435.410000", "152437.410000", "152439.410000", "152441.410000", "152443.410000", "152445.410000", "152447.410000", "152449.410000", "152451.410000", "152453.410000", "152455.410000", "152457.410000", "152459.410000", "152501.410000", "152503.410000", "152505.410000", "152507.410000", "152509.410000", "152511.410000", "152513.410000", "152515.410000", "152517.410000", "152519.410000", "152521.410000", "152523.410000", "152525.410000", "152527.410000", "152529.410000", "152531.410000", "152533.410000", "152535.410000", "152537.410000", "152539.410000", "152541.410000", "152543.410000", "152545.410000", "152547.410000", "152549.410000", "152551.410000", "152553.410000", "152555.410000", "152557.410000", "152559.410000", "152601.410000", "152603.410000", "152605.410000", "152607.410000", "152609.410000", "152611.410000", "152613.410000", "152615.410000", "152617.410000", "152619.410000", "152621.410000", "152623.410000", "152625.410000", "152627.410000", "152629.410000", "152631.410000", "152633.410000", "152635.410000", "152637.410000", "152639.410000", "152641.410000", "152643.410000", "152645.410000", "152647.410000", "152649.410000", "152651.410000", "152653.410000", "152655.410000", "152657.410000", "152659.410000", "152701.410000", "152703.410000", "152705.410000", "152707.410000", "152709.410000", "152711.410000", "152713.410000", "152715.410000", "152717.410000", "152719.410000", "152721.410000", "152723.410000", "152725.410000", "152727.410000", "152729.410000", "152731.410000", "152733.410000", "152735.410000", "152737.410000", "152739.410000", "152741.410000", "152743.410000", "152745.410000", "152747.410000", "152749.410000", "152751.410000", "152753.410000", "152755.410000", "152757.410000", "152759.410000", "152801.410000", "152803.410000", "152805.410000", "152807.410000", "152809.410000", "152811.410000", "152813.410000", "152815.410000", "152817.410000", "152819.410000", "152821.410000", "152823.410000", "152825.410000", "152827.410000", "152829.410000", "152831.410000", "152833.410000", "152835.410000", "152837.410000", "152839.410000", "152841.410000", "152843.410000", "152845.410000", "152847.410000", "152849.410000", "152851.410000", "152853.410000", "152855.410000", "152857.410000", "152859.410000", "152901.410000", "152903.410000", "152905.410000", "152907.410000", "152909.410000", "152911.410000", "152913.410000", "152915.410000", "152917.410000", "152919.410000", "152921.410000", "152923.410000", "152925.410000", "152927.410000", "152929.410000", "152931.410000", "152933.410000", "152935.410000", "152937.410000", "152939.410000", "152941.410000", "152943.410000", "152945.410000", "152947.410000", "152949.410000", "152951.410000", "152953.410000", "152955.410000", "152957.410000", "152959.410000", "153001.410000", "153003.410000", "153005.410000", "153007.410000", "153009.410000", "153011.410000", "153013.410000", "153015.410000", "153017.410000", "153019.410000", "153021.410000", "153023.410000", "153025.410000", "153027.410000", "153029.410000", "153031.410000", "153033.410000", "153035.410000", "153037.410000", "153039.410000", "153041.410000", "153043.410000", "153045.410000", "153047.410000", "153049.410000", "153051.410000", "153053.410000", "153055.410000", "153057.410000", "153059.410000", "153101.410000", "153103.410000", "153105.410000", "153107.410000", "153109.410000", "153111.410000", "153113.410000", "153115.410000", "153117.410000", "153119.410000", "153121.410000", "153123.410000", "153125.410000", "153127.410000", "153129.410000", "153131.410000", "153133.410000", "153135.410000", "153137.410000", "153139.410000", "153141.410000", "153143.410000", "153145.410000", "153147.410000", "153149.410000", "153151.410000", "153153.410000", "153155.410000", "153157.410000", "153159.410000", "153201.410000", "153203.410000", "153205.410000", "153207.410000", "153209.410000", "153211.410000", "153213.410000", "153215.410000", "153217.410000", "153219.410000", "153221.410000", "153223.410000", "153225.410000", "153227.410000", "153229.410000", "153231.410000", "153233.410000", "153235.410000", "153237.410000", "153239.410000", "153241.410000", "153243.410000", "153245.410000", "153247.410000", "153249.410000", "153251.410000", "153253.410000", "153255.410000", "153257.410000", "153259.410000", "153301.410000", "153303.410000", "153305.410000", "153307.410000", "153309.410000", "153311.410000", "153313.410000", "153315.410000", "153317.410000", "153319.410000", "153321.410000", "153323.410000", "153325.410000", "153327.410000", "153329.410000", "153331.410000", "153333.410000", "153335.410000", "153337.410000", "153339.410000", "153341.410000", "153343.410000", "153345.410000", "153347.410000", "153349.410000", "153351.410000", "153353.410000", "153355.410000", "153357.410000", "153359.410000", "153401.410000", "153403.410000", "153405.410000", "153407.410000", "153409.410000", "153411.410000", "153413.410000", "153415.410000", "153417.410000", "153419.410000", "153421.410000", "153423.410000", "153425.410000", "153427.410000", "153429.410000", "153431.410000", "153433.410000", "153435.410000", "153437.410000", "153439.410000", "153441.410000", "153443.410000", "153445.410000", "153447.410000", "153449.410000", "153451.410000", "153453.410000", "153455.410000", "153457.410000", "153459.410000", "153501.410000", "153503.410000", "153505.410000", "153507.410000", "153509.410000", "153511.410000", "153513.410000", "153515.410000", "153517.410000", "153519.410000", "153521.410000", "153523.410000", "153525.410000", "153527.410000", "153529.410000"],
      "ContentTime": ["152507.715000", "152507.719000", "152507.722000", "152507.725000", "152507.727000", "152507.730000", "152507.733000", "152507.745000", "152507.748000", "152507.750000", "152507.753000", "152507.759000", "152507.762000", "152507.764000", "152507.767000", "152507.770000", "152507.773000", "152507.775000", "152507.778000", "152507.781000", "152507.783000", "152507.786000", "152507.789000", "152507.805000", "152507.807000", "152507.810000", "152507.813000", "152507.816000", "152507.818000", "152547.711000", "152547.714000", "152547.716000", "152547.719000", "152547.722000", "152547.730000", "152547.733000", "152547.736000", "152547.739000", "152547.741000", "152547.744000", "152547.747000", "152547.750000", "152547.752000", "152547.755000", "152547.758000", "152547.763000", "152547.766000", "152547.769000", "152547.771000", "152627.711000", "152627.714000", "152627.716000", "152627.719000", "152627.722000", "152627.725000", "152627.727000", "152627.730000", "152627.733000", "152627.736000", "152627.738000", "152627.741000", "152627.744000", "152627.747000", "152627.749000", "152627.752000", "152627.755000", "152627.769000", "152627.771000", "152627.774000", "152707.710000", "152707.713000", "152707.715000", "152707.718000", "152707.721000", "152707.724000", "152707.727000", "152707.729000", "152707.732000", "152707.735000", "152707.738000", "152707.740000", "152707.743000", "152707.746000", "152707.749000", "152707.751000", "152707.754000", "152707.757000", "152707.760000", "152707.762000", "152747.711000", "152747.714000", "152747.716000", "152747.719000", "152747.722000", "152747.724000", "152747.727000", "152747.730000", "152747.733000", "152747.735000", "152747.738000", "152747.741000", "152747.743000", "152747.746000", "152747.749000", "152747.752000", "152747.754000", "152747.757000", "152747.760000", "152747.762000", "152827.711000", "152827.714000", "152827.716000", "152827.719000", "152827.722000", "152827.725000", "152827.728000", "152827.730000", "152827.733000", "152827.736000", "152827.739000", "152827.742000", "152827.744000", "152827.747000", "152827.750000", "152827.753000", "152827.755000", "152827.758000", "152827.761000", "152827.764000", "152907.710000", "152907.713000", "152907.715000", "152907.718000", "152907.721000", "152907.724000", "152907.726000", "152907.729000", "152907.732000", "152907.735000", "152907.737000", "152907.740000", "152907.743000", "152907.746000", "152907.748000", "152907.751000", "152907.754000", "152907.757000", "152907.759000", "152907.762000", "152947.711000", "152947.714000", "152947.716000", "152947.719000", "152947.722000", "152947.725000", "152947.727000", "152947.730000", "152947.733000", "152947.736000", "152947.738000", "152947.741000", "152947.744000", "152947.747000", "152947.749000", "152947.752000", "152947.755000", "152947.758000", "152947.760000", "152947.763000", "153027.711000", "153027.714000", "153027.716000", "153027.719000", "153027.722000", "153027.725000", "153027.727000", "153027.730000", "153027.733000", "153027.736000", "153027.738000", "153027.741000", "153027.744000", "153027.747000", "153027.749000", "153027.752000", "153027.755000", "153027.758000", "153027.761000", "153027.763000", "153107.711000", "153107.714000", "153107.716000", "153107.719000", "153107.722000", "153107.725000", "153107.728000", "153107.730000", "153107.733000", "153107.736000", "153107.739000", "153107.741000", "153107.744000", "153107.747000", "153107.749000", "153107.752000", "153107.755000", "153107.758000", "153107.761000", "153107.764000", "153147.710000", "153147.713000", "153147.715000", "153147.718000", "153147.721000", "153147.724000", "153147.726000", "153147.729000", "153147.732000", "153147.735000", "153147.737000", "153147.740000", "153147.743000", "153147.746000", "153147.749000", "153147.751000", "153147.754000", "153147.757000", "153147.760000", "153147.763000", "153207.711000", "153207.714000", "153207.716000", "153207.719000", "153207.722000", "153207.725000", "153207.727000", "153207.730000", "153207.733000", "153207.736000", "153247.711000", "153247.714000", "153247.717000", "153247.719000", "153247.722000", "153247.725000", "153247.728000", "153247.730000", "153247.733000", "153247.736000", "153247.739000", "153247.741000", "153247.744000", "153247.747000", "153247.750000", "153247.752000", "153247.755000", "153247.758000", "153247.761000", "153247.763000", "153327.711000", "153327.714000", "153327.717000", "153327.719000", "153327.722000", "153327.725000", "153327.728000", "153327.730000", "153327.733000", "153327.736000", "153327.739000", "153327.741000", "153327.744000", "153327.747000", "153327.750000", "153327.753000", "153327.755000", "153327.758000", "153327.761000", "153327.764000", "153407.710000", "153407.713000", "153407.715000", "153407.718000", "153407.721000", "153407.724000", "153407.727000", "153407.729000", "153407.732000", "153407.735000", "153407.738000", "153407.740000", "153407.743000", "153407.746000", "153407.749000", "153407.752000", "153407.754000", "153407.757000", "153407.760000", "153407.763000", "153447.711000", "153447.714000", "153447.717000", "153447.719000", "153447.722000", "153447.725000", "153447.728000", "153447.731000", "153447.733000", "153447.736000", "153447.739000", "153447.742000", "153447.744000", "153447.747000", "153447.750000", "153447.753000", "153447.755000", "153447.758000", "153447.761000", "153447.764000", "153527.711000", "153527.714000", "153527.717000", "153527.719000", "153527.722000", "153527.725000", "153527.728000", "153527.730000", "153527.733000", "153527.736000", "153527.739000", "153527.741000", "153527.744000", "153527.747000", "153527.750000", "153527.753000", "153527.755000", "153527.758000", "153527.761000", "153527.764000", "153531.069000", "153531.073000"],
      "DataSetTrailingPadding": [
        "\u0000\u0000\u0000\u0000\u0000\u0000\u0000\u0000\u0000\u0000\u0000\u0000\u0000\u0000\u0000\u0000\u0000\u0000\u0000\u0000\u0000\u0000\u0000\u0000\u0000\u0000\u0000\u0000\u0000\u0000\u0000\u0000\u0000\u0000\u0000\u0000\u0000\u0000\u0000\u0000\u0000\u0000\u0000\u0000\u0000\u0000\u0000\u0000\u0000\u0000\u0000\u0000\u0000\u0000\u0000\u0000\u0000\u0000\u0000\u0000\u0000\u0000\u0000\u0000\u0000\u0000\u0000\u0000\u0000\u0000\u0000\u0000\u0000\u0000\u0000\u0000\u0000\u0000\u0000\u0000\u0000\u0000\u0000\u0000\u0000\u0000\u0000\u0000\u0000\u0000\u0000\u0000",
        "\u0000\u0000\u0000\u0000\u0000\u0000\u0000\u0000\u0000\u0000\u0000\u0000\u0000\u0000\u0000\u0000\u0000\u0000\u0000\u0000\u0000\u0000\u0000\u0000\u0000\u0000\u0000\u0000\u0000\u0000\u0000\u0000\u0000\u0000\u0000\u0000\u0000\u0000\u0000\u0000\u0000\u0000\u0000\u0000\u0000\u0000\u0000\u0000\u0000\u0000\u0000\u0000\u0000\u0000\u0000\u0000\u0000\u0000\u0000\u0000\u0000\u0000\u0000\u0000\u0000\u0000\u0000\u0000\u0000\u0000\u0000\u0000\u0000\u0000\u0000\u0000\u0000\u0000\u0000\u0000\u0000\u0000\u0000\u0000\u0000\u0000\u0000\u0000\u0000\u0000\u0000\u0000",
        "\u0000\u0000\u0000\u0000\u0000\u0000\u0000\u0000\u0000\u0000\u0000\u0000\u0000\u0000\u0000\u0000\u0000\u0000\u0000\u0000\u0000\u0000\u0000\u0000\u0000\u0000\u0000\u0000\u0000\u0000\u0000\u0000\u0000\u0000\u0000\u0000\u0000\u0000\u0000\u0000\u0000\u0000\u0000\u0000\u0000\u0000\u0000\u0000\u0000\u0000\u0000\u0000\u0000\u0000\u0000\u0000\u0000\u0000\u0000\u0000\u0000\u0000\u0000\u0000\u0000\u0000\u0000\u0000\u0000\u0000\u0000\u0000\u0000\u0000\u0000\u0000\u0000\u0000\u0000\u0000\u0000\u0000\u0000\u0000\u0000\u0000\u0000\u0000\u0000\u0000\u0000\u0000",
        "\u0000\u0000\u0000\u0000\u0000\u0000\u0000\u0000\u0000\u0000\u0000\u0000\u0000\u0000\u0000\u0000\u0000\u0000\u0000\u0000\u0000\u0000\u0000\u0000\u0000\u0000\u0000\u0000\u0000\u0000\u0000\u0000\u0000\u0000\u0000\u0000\u0000\u0000\u0000\u0000\u0000\u0000\u0000\u0000\u0000\u0000\u0000\u0000\u0000\u0000\u0000\u0000\u0000\u0000\u0000\u0000\u0000\u0000\u0000\u0000\u0000\u0000\u0000\u0000\u0000\u0000\u0000\u0000\u0000\u0000\u0000\u0000\u0000\u0000\u0000\u0000\u0000\u0000\u0000\u0000\u0000\u0000\u0000\u0000\u0000\u0000\u0000\u0000\u0000\u0000\u0000\u0000",
        "\u0000\u0000\u0000\u0000\u0000\u0000\u0000\u0000\u0000\u0000\u0000\u0000\u0000\u0000\u0000\u0000\u0000\u0000\u0000\u0000\u0000\u0000\u0000\u0000\u0000\u0000\u0000\u0000\u0000\u0000\u0000\u0000\u0000\u0000\u0000\u0000\u0000\u0000\u0000\u0000\u0000\u0000\u0000\u0000\u0000\u0000\u0000\u0000\u0000\u0000\u0000\u0000\u0000\u0000\u0000\u0000\u0000\u0000\u0000\u0000\u0000\u0000\u0000\u0000\u0000\u0000\u0000\u0000\u0000\u0000\u0000\u0000\u0000\u0000\u0000\u0000\u0000\u0000\u0000\u0000\u0000\u0000\u0000\u0000\u0000\u0000\u0000\u0000\u0000\u0000",
        "\u0000\u0000\u0000\u0000\u0000\u0000\u0000\u0000\u0000\u0000\u0000\u0000\u0000\u0000\u0000\u0000\u0000\u0000\u0000\u0000\u0000\u0000\u0000\u0000\u0000\u0000\u0000\u0000\u0000\u0000\u0000\u0000\u0000\u0000\u0000\u0000\u0000\u0000\u0000\u0000\u0000\u0000\u0000\u0000\u0000\u0000\u0000\u0000\u0000\u0000\u0000\u0000\u0000\u0000\u0000\u0000\u0000\u0000\u0000\u0000\u0000\u0000\u0000\u0000\u0000\u0000\u0000\u0000\u0000\u0000\u0000\u0000\u0000\u0000\u0000\u0000\u0000\u0000\u0000\u0000\u0000\u0000\u0000\u0000\u0000\u0000\u0000\u0000\u0000\u0000",
        "\u0000\u0000\u0000\u0000\u0000\u0000\u0000\u0000\u0000\u0000\u0000\u0000\u0000\u0000\u0000\u0000\u0000\u0000\u0000\u0000\u0000\u0000\u0000\u0000\u0000\u0000\u0000\u0000\u0000\u0000\u0000\u0000\u0000\u0000\u0000\u0000\u0000\u0000\u0000\u0000\u0000\u0000\u0000\u0000\u0000\u0000\u0000\u0000\u0000\u0000\u0000\u0000\u0000\u0000\u0000\u0000\u0000\u0000\u0000\u0000\u0000\u0000\u0000\u0000\u0000\u0000\u0000\u0000\u0000\u0000\u0000\u0000\u0000\u0000\u0000\u0000\u0000\u0000\u0000\u0000\u0000\u0000\u0000\u0000\u0000\u0000\u0000\u0000\u0000\u0000",
        "\u0000\u0000\u0000\u0000\u0000\u0000\u0000\u0000\u0000\u0000\u0000\u0000\u0000\u0000\u0000\u0000\u0000\u0000\u0000\u0000\u0000\u0000\u0000\u0000\u0000\u0000\u0000\u0000\u0000\u0000\u0000\u0000\u0000\u0000\u0000\u0000\u0000\u0000\u0000\u0000\u0000\u0000\u0000\u0000\u0000\u0000\u0000\u0000\u0000\u0000\u0000\u0000\u0000\u0000\u0000\u0000\u0000\u0000\u0000\u0000\u0000\u0000\u0000\u0000\u0000\u0000\u0000\u0000\u0000\u0000\u0000\u0000\u0000\u0000\u0000\u0000\u0000\u0000\u0000\u0000\u0000\u0000\u0000\u0000\u0000\u0000\u0000\u0000\u0000\u0000",
        "\u0000\u0000\u0000\u0000\u0000\u0000\u0000\u0000\u0000\u0000\u0000\u0000\u0000\u0000\u0000\u0000\u0000\u0000\u0000\u0000\u0000\u0000\u0000\u0000\u0000\u0000\u0000\u0000\u0000\u0000\u0000\u0000\u0000\u0000\u0000\u0000\u0000\u0000\u0000\u0000\u0000\u0000\u0000\u0000\u0000\u0000\u0000\u0000\u0000\u0000\u0000\u0000\u0000\u0000\u0000\u0000\u0000\u0000\u0000\u0000\u0000\u0000\u0000\u0000\u0000\u0000\u0000\u0000\u0000\u0000\u0000\u0000\u0000\u0000\u0000\u0000\u0000\u0000\u0000\u0000\u0000\u0000\u0000\u0000\u0000\u0000\u0000\u0000\u0000\u0000",
        "\u0000\u0000\u0000\u0000\u0000\u0000\u0000\u0000\u0000\u0000\u0000\u0000\u0000\u0000\u0000\u0000\u0000\u0000\u0000\u0000\u0000\u0000\u0000\u0000\u0000\u0000\u0000\u0000\u0000\u0000\u0000\u0000\u0000\u0000\u0000\u0000\u0000\u0000\u0000\u0000\u0000\u0000\u0000\u0000\u0000\u0000\u0000\u0000\u0000\u0000\u0000\u0000\u0000\u0000\u0000\u0000\u0000\u0000\u0000\u0000\u0000\u0000\u0000\u0000\u0000\u0000\u0000\u0000\u0000\u0000\u0000\u0000\u0000\u0000\u0000\u0000\u0000\u0000\u0000\u0000\u0000\u0000\u0000\u0000\u0000\u0000\u0000\u0000\u0000\u0000",
        "\u0000\u0000\u0000\u0000\u0000\u0000\u0000\u0000\u0000\u0000\u0000\u0000\u0000\u0000\u0000\u0000\u0000\u0000\u0000\u0000\u0000\u0000\u0000\u0000\u0000\u0000\u0000\u0000\u0000\u0000\u0000\u0000\u0000\u0000\u0000\u0000\u0000\u0000\u0000\u0000\u0000\u0000\u0000\u0000\u0000\u0000\u0000\u0000\u0000\u0000\u0000\u0000\u0000\u0000\u0000\u0000\u0000\u0000\u0000\u0000\u0000\u0000\u0000\u0000\u0000\u0000\u0000\u0000\u0000\u0000\u0000\u0000\u0000\u0000\u0000\u0000\u0000\u0000\u0000\u0000\u0000\u0000\u0000\u0000\u0000\u0000\u0000\u0000\u0000\u0000",
        "\u0000\u0000\u0000\u0000\u0000\u0000\u0000\u0000\u0000\u0000\u0000\u0000\u0000\u0000\u0000\u0000\u0000\u0000\u0000\u0000\u0000\u0000\u0000\u0000\u0000\u0000\u0000\u0000\u0000\u0000\u0000\u0000\u0000\u0000\u0000\u0000\u0000\u0000\u0000\u0000\u0000\u0000\u0000\u0000\u0000\u0000\u0000\u0000\u0000\u0000\u0000\u0000\u0000\u0000\u0000\u0000\u0000\u0000\u0000\u0000\u0000\u0000\u0000\u0000\u0000\u0000\u0000\u0000\u0000\u0000\u0000\u0000\u0000\u0000\u0000\u0000\u0000\u0000\u0000\u0000\u0000\u0000\u0000\u0000\u0000\u0000\u0000\u0000\u0000\u0000",
        "\u0000\u0000\u0000\u0000\u0000\u0000\u0000\u0000\u0000\u0000\u0000\u0000\u0000\u0000\u0000\u0000\u0000\u0000\u0000\u0000\u0000\u0000\u0000\u0000\u0000\u0000\u0000\u0000\u0000\u0000\u0000\u0000\u0000\u0000\u0000\u0000\u0000\u0000\u0000\u0000\u0000\u0000\u0000\u0000\u0000\u0000\u0000\u0000\u0000\u0000\u0000\u0000\u0000\u0000\u0000\u0000\u0000\u0000\u0000\u0000\u0000\u0000\u0000\u0000\u0000\u0000\u0000\u0000\u0000\u0000\u0000\u0000\u0000\u0000\u0000\u0000\u0000\u0000\u0000\u0000\u0000\u0000\u0000\u0000\u0000\u0000\u0000\u0000\u0000\u0000",
        "\u0000\u0000\u0000\u0000\u0000\u0000\u0000\u0000\u0000\u0000\u0000\u0000\u0000\u0000\u0000\u0000\u0000\u0000\u0000\u0000\u0000\u0000\u0000\u0000\u0000\u0000\u0000\u0000\u0000\u0000\u0000\u0000\u0000\u0000\u0000\u0000\u0000\u0000\u0000\u0000\u0000\u0000\u0000\u0000\u0000\u0000\u0000\u0000\u0000\u0000\u0000\u0000\u0000\u0000\u0000\u0000\u0000\u0000\u0000\u0000\u0000\u0000\u0000\u0000\u0000\u0000\u0000\u0000\u0000\u0000\u0000\u0000\u0000\u0000\u0000\u0000\u0000\u0000\u0000\u0000\u0000\u0000\u0000\u0000\u0000\u0000\u0000\u0000\u0000\u0000",
        "\u0000\u0000\u0000\u0000\u0000\u0000\u0000\u0000\u0000\u0000\u0000\u0000\u0000\u0000\u0000\u0000\u0000\u0000\u0000\u0000\u0000\u0000\u0000\u0000\u0000\u0000\u0000\u0000\u0000\u0000\u0000\u0000\u0000\u0000\u0000\u0000\u0000\u0000\u0000\u0000\u0000\u0000\u0000\u0000\u0000\u0000\u0000\u0000\u0000\u0000\u0000\u0000\u0000\u0000\u0000\u0000\u0000\u0000\u0000\u0000\u0000\u0000\u0000\u0000\u0000\u0000\u0000\u0000\u0000\u0000\u0000\u0000\u0000\u0000\u0000\u0000\u0000\u0000\u0000\u0000\u0000\u0000\u0000\u0000\u0000\u0000\u0000\u0000\u0000\u0000",
        "\u0000\u0000\u0000\u0000\u0000\u0000\u0000\u0000\u0000\u0000\u0000\u0000\u0000\u0000\u0000\u0000\u0000\u0000\u0000\u0000\u0000\u0000\u0000\u0000\u0000\u0000\u0000\u0000\u0000\u0000\u0000\u0000\u0000\u0000\u0000\u0000\u0000\u0000\u0000\u0000\u0000\u0000\u0000\u0000\u0000\u0000\u0000\u0000\u0000\u0000\u0000\u0000\u0000\u0000\u0000\u0000\u0000\u0000\u0000\u0000\u0000\u0000\u0000\u0000\u0000\u0000\u0000\u0000\u0000\u0000\u0000\u0000\u0000\u0000\u0000\u0000\u0000\u0000\u0000\u0000\u0000\u0000\u0000\u0000\u0000\u0000\u0000\u0000\u0000\u0000",
        "\u0000\u0000\u0000\u0000\u0000\u0000\u0000\u0000\u0000\u0000\u0000\u0000\u0000\u0000\u0000\u0000\u0000\u0000\u0000\u0000\u0000\u0000\u0000\u0000\u0000\u0000\u0000\u0000\u0000\u0000\u0000\u0000\u0000\u0000\u0000\u0000\u0000\u0000\u0000\u0000\u0000\u0000\u0000\u0000\u0000\u0000\u0000\u0000\u0000\u0000\u0000\u0000\u0000\u0000\u0000\u0000\u0000\u0000\u0000\u0000\u0000\u0000\u0000\u0000\u0000\u0000\u0000\u0000\u0000\u0000\u0000\u0000\u0000\u0000\u0000\u0000\u0000\u0000\u0000\u0000\u0000\u0000\u0000\u0000\u0000\u0000\u0000\u0000\u0000\u0000",
        "\u0000\u0000\u0000\u0000\u0000\u0000\u0000\u0000\u0000\u0000\u0000\u0000\u0000\u0000\u0000\u0000\u0000\u0000\u0000\u0000\u0000\u0000\u0000\u0000\u0000\u0000\u0000\u0000\u0000\u0000\u0000\u0000\u0000\u0000\u0000\u0000\u0000\u0000\u0000\u0000\u0000\u0000\u0000\u0000\u0000\u0000\u0000\u0000\u0000\u0000\u0000\u0000\u0000\u0000\u0000\u0000\u0000\u0000\u0000\u0000\u0000\u0000\u0000\u0000\u0000\u0000\u0000\u0000\u0000\u0000\u0000\u0000\u0000\u0000\u0000\u0000\u0000\u0000\u0000\u0000\u0000\u0000\u0000\u0000\u0000\u0000\u0000\u0000\u0000\u0000",
        "\u0000\u0000\u0000\u0000\u0000\u0000\u0000\u0000\u0000\u0000\u0000\u0000\u0000\u0000\u0000\u0000\u0000\u0000\u0000\u0000\u0000\u0000\u0000\u0000\u0000\u0000\u0000\u0000\u0000\u0000\u0000\u0000\u0000\u0000\u0000\u0000\u0000\u0000\u0000\u0000\u0000\u0000\u0000\u0000\u0000\u0000\u0000\u0000\u0000\u0000\u0000\u0000\u0000\u0000\u0000\u0000\u0000\u0000\u0000\u0000\u0000\u0000\u0000\u0000\u0000\u0000\u0000\u0000\u0000\u0000\u0000\u0000\u0000\u0000\u0000\u0000\u0000\u0000\u0000\u0000\u0000\u0000\u0000\u0000\u0000\u0000\u0000\u0000\u0000\u0000",
        "\u0000\u0000\u0000\u0000\u0000\u0000\u0000\u0000\u0000\u0000\u0000\u0000\u0000\u0000\u0000\u0000\u0000\u0000\u0000\u0000\u0000\u0000\u0000\u0000\u0000\u0000\u0000\u0000\u0000\u0000\u0000\u0000\u0000\u0000\u0000\u0000\u0000\u0000\u0000\u0000\u0000\u0000\u0000\u0000\u0000\u0000\u0000\u0000\u0000\u0000\u0000\u0000\u0000\u0000\u0000\u0000\u0000\u0000\u0000\u0000\u0000\u0000\u0000\u0000\u0000\u0000\u0000\u0000\u0000\u0000\u0000\u0000\u0000\u0000\u0000\u0000\u0000\u0000\u0000\u0000\u0000\u0000\u0000\u0000\u0000\u0000\u0000\u0000\u0000\u0000\u0000\u0000",
