{
  "AcquisitionMatrixPE": 70,
  "AcquisitionNumber": 1,
  "AcquisitionTime": "15:25:19.972500",
  "BandwidthPerPixelPhaseEncode": 51.948,
  "BaseResolution": 70,
  "BodyPartExamined": "HEAD",
  "CoilCombinationMethod": "Sum of Squares",
  "ConsistencyInfo": "N4_VE11C_LATEST_20160120",
  "ConversionSoftware": "dcm2niix",
  "ConversionSoftwareVersion": "v1.0.20220720",
  "DerivedVendorReportedEchoSpacing": 0.000550001,
  "DeviceSerialNumber": "66061",
  "DwellTime": 3.3e-06,
  "EchoTime": 0.022,
  "EchoTrainLength": 35,
  "EffectiveEchoSpacing": 0.000275,
  "FlipAngle": 90,
  "HeudiconvVersion": "1.1.1",
  "ImageOrientationPatientDICOM": [0.999623, 0.00625129, 0.0267516, -0.00122123, 0.982915, -0.184053],
  "ImageOrientationText": "Tra>Cor(-10.6)>Sag(1.6)",
  "ImageType": [
    "ORIGINAL",
    "PRIMARY",
    "M",
    "ND",
    "NORM",
    "MOSAIC"
],
  "ImagingFrequency": 123.254,
  "InPlanePhaseEncodingDirectionDICOM": "COL",
  "InstitutionAddress": "Street StreetNo,City/1c4204/,District,KR,ZIP",
  "InstitutionName": "SKKU",
  "InstitutionalDepartmentName": "Department",
  "MRAcquisitionType": "2D",
  "MagneticFieldStrength": 3,
  "Manufacturer": "Siemens",
  "ManufacturersModelName": "Prisma",
  "MatrixCoilMode": "GRAPPA",
  "Modality": "MR",
  "NonlinearGradientCorrection": false,
  "ParallelReductionFactorInPlane": 2,
  "PartialFourier": 1,
  "PatientPosition": "HFS",
  "PercentPhaseFOV": 100,
  "PercentSampling": 100,
  "PhaseEncodingDirection": "j-",
  "PhaseEncodingSteps": 70,
  "PhaseResolution": 1,
  "PixelBandwidth": 2165,
  "ProcedureStepDescription": "Head^PI:Others",
  "ProtocolName": "BOLD_ep2d_3x3x3_response2",
  "PulseSequenceDetails": "%SiemensSeq%\\ep2d_pace",
  "ReceiveCoilActiveElements": "HC1-7",
  "ReceiveCoilName": "HeadNeck_64",
  "ReconMatrixPE": 70,
  "RefLinesPE": 24,
  "RepetitionTime": 2,
  "SAR": 0.123515,
  "ScanOptions": "FS",
  "ScanningSequence": "EP",
  "SequenceName": "*epfid2d1_70",
  "SequenceVariant": "SK",
  "SeriesDescription": "BOLD_ep2d_3x3x3_response2",
  "SeriesNumber": 9,
  "ShimSetting": [5067, 3695, 4460, 201, -42, -59, 70, 33],
  "SliceThickness": 3,
  "SliceTiming": [0.99, 0, 1.0375, 0.0475, 1.085, 0.095, 1.13, 0.14, 1.1775, 0.1875, 1.225, 0.235, 1.2725, 0.2825, 1.32, 0.33, 1.3675, 0.3775, 1.415, 0.425, 1.46, 0.47, 1.5075, 0.5175, 1.555, 0.565, 1.6025, 0.6125, 1.65, 0.66, 1.6975, 0.7075, 1.745, 0.755, 1.79, 0.8, 1.8375, 0.8475, 1.885, 0.895, 1.9325, 0.9425],
  "SoftwareVersions": "syngo MR E11",
  "SpacingBetweenSlices": 3,
  "StationName": "AWP66061",
  "TaskName": "response",
  "TotalReadoutTime": 0.018975,
  "TxRefAmp": 242.726,
  "dcmmeta_affine": [
    [-2.9988677501678467, -0.0036636756267398596, 0.082335464656353, 105.16638946533203],
    [-0.018753882497549057, 2.9487464427948, -0.5518540143966675, -83.46289825439453],
    [0.08025486767292023, 0.5521604418754578, 2.9476563930511475, -78.92262268066406],
    [0.0, 0.0, 0.0, 1.0]
],
  "dcmmeta_reorient_transform": [
    [0.0, -1.0, 0.0, 69.0],
    [1.0, 0.0, 0.0, 0.0],
    [0.0, 0.0, -1.0, 41.0],
    [0.0, 0.0, 0.0, 1.0]
],
  "dcmmeta_shape": [70, 70, 42, 341],
  "dcmmeta_slice_dim": 2,
  "dcmmeta_version": 0.6,
  "global": {
    "const": {
      "AcquisitionMatrix": [70, 0, 0, 70],
      "AngioFlag": "N",
      "BitsAllocated": 16,
      "BitsStored": 12,
      "BodyPartExamined": "HEAD",
      "Columns": 490,
      "EchoNumbers": 1,
      "EchoTime": 22.0,
      "EchoTrainLength": 35,
      "FlipAngle": 90.0,
      "HighBit": 11,
      "ImageOrientationPatient": [0.99962256480398, 0.00625129395918, 0.02675162160614, -0.0012212252222, 0.98291547058808, -0.1840534875724],
      "ImagePositionPatient": [-737.28219656388, -720.54965118112, 179.13053573083],
      "ImageType": [
        "ORIGINAL",
        "PRIMARY",
        "M",
        "ND",
        "NORM",
        "MOSAIC"
],
      "ImagedNucleus": "1H",
      "ImagingFrequency": 123.254489,
      "InPlanePhaseEncodingDirection": "COL",
      "MRAcquisitionType": "2D",
      "MagneticFieldStrength": 3.0,
      "Manufacturer": "SIEMENS",
      "ManufacturerModelName": "Prisma",
      "Modality": "MR",
      "NumberOfAverages": 1.0,
      "NumberOfPhaseEncodingSteps": 70,
      "PercentPhaseFieldOfView": 100.0,
      "PercentSampling": 100.0,
      "PerformedProcedureStepStartTime": "143203.888000",
      "PhotometricInterpretation": "MONOCHROME2",
      "PixelBandwidth": 2165.0,
      "PixelRepresentation": 0,
      "PixelSpacing": [3.0, 3.0],
      "ProtocolName": "BOLD_ep2d_3x3x3_response2",
      "RepetitionTime": 2000.0,
      "Rows": 490,
      "SAR": 0.12351491160558,
      "SamplesPerPixel": 1,
      "ScanOptions": "FS",
      "ScanningSequence": "EP",
      "SequenceName": "*epfid2d1_70",
      "SequenceVariant": "SK",
      "SeriesDescription": "BOLD_ep2d_3x3x3_response2",
      "SeriesNumber": 9,
      "SeriesTime": "152601.143000",
      "SliceLocation": 63.693830821075,
      "SliceThickness": 3.0,
      "SmallestImagePixelValue": 0,
      "SoftwareVersions": "syngo MR E11",
      "SpacingBetweenSlices": 2.9999999564461,
      "SpecificCharacterSet": "ISO_IR 100",
      "StudyID": "1",
      "StudyTime": "143203.819000",
      "TransmitCoilName": "Body",
      "VariableFlipAngleFlag": "N",
      "WindowCenterWidthExplanation": "Algo1",
      "dBdt": 0.0},
    "slices": {}
  },
  "time": {
    "samples": {
      "AcquisitionNumber": [1, 2, 3, 4, 5, 6, 7, 8, 9, 10, 11, 12, 13, 14, 15, 16, 17, 18, 19, 20, 21, 22, 23, 24, 25, 26, 27, 28, 29, 30, 31, 32, 33, 34, 35, 36, 37, 38, 39, 40, 41, 42, 43, 44, 45, 46, 47, 48, 49, 50, 51, 52, 53, 54, 55, 56, 57, 58, 59, 60, 61, 62, 63, 64, 65, 66, 67, 68, 69, 70, 71, 72, 73, 74, 75, 76, 77, 78, 79, 80, 81, 82, 83, 84, 85, 86, 87, 88, 89, 90, 91, 92, 93, 94, 95, 96, 97, 98, 99, 100, 101, 102, 103, 104, 105, 106, 107, 108, 109, 110, 111, 112, 113, 114, 115, 116, 117, 118, 119, 120, 121, 122, 123, 124, 125, 126, 127, 128, 129, 130, 131, 132, 133, 134, 135, 136, 137, 138, 139, 140, 141, 142, 143, 144, 145, 146, 147, 148, 149, 150, 151, 152, 153, 154, 155, 156, 157, 158, 159, 160, 161, 162, 163, 164, 165, 166, 167, 168, 169, 170, 171, 172, 173, 174, 175, 176, 177, 178, 179, 180, 181, 182, 183, 184, 185, 186, 187, 188, 189, 190, 191, 192, 193, 194, 195, 196, 197, 198, 199, 200, 201, 202, 203, 204, 205, 206, 207, 208, 209, 210, 211, 212, 213, 214, 215, 216, 217, 218, 219, 220, 221, 222, 223, 224, 225, 226, 227, 228, 229, 230, 231, 232, 233, 234, 235, 236, 237, 238, 239, 240, 241, 242, 243, 244, 245, 246, 247, 248, 249, 250, 251, 252, 253, 254, 255, 256, 257, 258, 259, 260, 261, 262, 263, 264, 265, 266, 267, 268, 269, 270, 271, 272, 273, 274, 275, 276, 277, 278, 279, 280, 281, 282, 283, 284, 285, 286, 287, 288, 289, 290, 291, 292, 293, 294, 295, 296, 297, 298, 299, 300, 301, 302, 303, 304, 305, 306, 307, 308, 309, 310, 311, 312, 313, 314, 315, 316, 317, 318, 319, 320, 321, 322, 323, 324, 325, 326, 327, 328, 329, 330, 331, 332, 333, 334, 335, 336, 337, 338, 339, 340, 341],
      "AcquisitionTime": ["152519.972500", "152521.972500", "152523.972500", "152525.972500", "152527.972500", "152529.972500", "152531.972500", "152533.972500", "152535.972500", "152537.972500", "152539.972500", "152541.972500", "152543.972500", "152545.972500", "152547.972500", "152549.972500", "152551.972500", "152553.972500", "152555.972500", "152557.972500", "152559.972500", "152601.972500", "152603.972500", "152605.972500", "152607.972500", "152609.972500", "152611.972500", "152613.972500", "152615.972500", "152617.972500", "152619.972500", "152621.972500", "152623.972500", "152625.972500", "152627.972500", "152629.972500", "152631.972500", "152633.972500", "152635.972500", "152637.972500", "152639.972500", "152641.972500", "152643.972500", "152645.972500", "152647.972500", "152649.972500", "152651.972500", "152653.972500", "152655.972500", "152657.972500", "152659.972500", "152701.972500", "152703.972500", "152705.972500", "152707.972500", "152709.972500", "152711.972500", "152713.972500", "152715.972500", "152717.972500", "152719.972500", "152721.972500", "152723.972500", "152725.972500", "152727.972500", "152729.972500", "152731.972500", "152733.972500", "152735.972500", "152737.972500", "152739.972500", "152741.972500", "152743.972500", "152745.972500", "152747.972500", "152749.972500", "152751.972500", "152753.972500", "152755.972500", "152757.972500", "152759.972500", "152801.972500", "152803.972500", "152805.972500", "152807.972500", "152809.972500", "152811.972500", "152813.972500", "152815.972500", "152817.972500", "152819.972500", "152821.972500", "152823.972500", "152825.972500", "152827.972500", "152829.972500", "152831.972500", "152833.972500", "152835.972500", "152837.972500", "152839.972500", "152841.972500", "152843.972500", "152845.972500", "152847.972500", "152849.972500", "152851.972500", "152853.972500", "152855.972500", "152857.972500", "152859.972500", "152901.972500", "152903.972500", "152905.972500", "152907.972500", "152909.972500", "152911.972500", "152913.972500", "152915.972500", "152917.972500", "152919.972500", "152921.972500", "152923.972500", "152925.972500", "152927.972500", "152929.972500", "152931.972500", "152933.972500", "152935.972500", "152937.972500", "152939.972500", "152941.972500", "152943.972500", "152945.972500", "152947.972500", "152949.972500", "152951.972500", "152953.972500", "152955.972500", "152957.972500", "152959.972500", "153001.972500", "153003.972500", "153005.972500", "153007.972500", "153009.972500", "153011.972500", "153013.972500", "153015.972500", "153017.972500", "153019.972500", "153021.972500", "153023.972500", "153025.972500", "153027.972500", "153029.972500", "153031.972500", "153033.972500", "153035.972500", "153037.972500", "153039.972500", "153041.972500", "153043.972500", "153045.972500", "153047.972500", "153049.972500", "153051.972500", "153053.972500", "153055.972500", "153057.972500", "153059.972500", "153101.972500", "153103.972500", "153105.972500", "153107.972500", "153109.972500", "153111.972500", "153113.972500", "153115.972500", "153117.972500", "153119.972500", "153121.972500", "153123.972500", "153125.972500", "153127.972500", "153129.972500", "153131.972500", "153133.972500", "153135.972500", "153137.972500", "153139.972500", "153141.972500", "153143.972500", "153145.972500", "153147.972500", "153149.972500", "153151.972500", "153153.972500", "153155.972500", "153157.972500", "153159.972500", "153201.972500", "153203.972500", "153205.972500", "153207.972500", "153209.972500", "153211.972500", "153213.972500", "153215.972500", "153217.972500", "153219.972500", "153221.972500", "153223.972500", "153225.972500", "153227.972500", "153229.972500", "153231.972500", "153233.972500", "153235.972500", "153237.972500", "153239.972500", "153241.972500", "153243.972500", "153245.972500", "153247.972500", "153249.972500", "153251.972500", "153253.972500", "153255.972500", "153257.972500", "153259.972500", "153301.972500", "153303.972500", "153305.972500", "153307.972500", "153309.972500", "153311.972500", "153313.972500", "153315.972500", "153317.972500", "153319.972500", "153321.972500", "153323.972500", "153325.972500", "153327.972500", "153329.972500", "153331.972500", "153333.972500", "153335.972500", "153337.972500", "153339.972500", "153341.972500", "153343.972500", "153345.972500", "153347.972500", "153349.972500", "153351.972500", "153353.972500", "153355.972500", "153357.972500", "153359.972500", "153401.972500", "153403.972500", "153405.972500", "153407.972500", "153409.972500", "153411.972500", "153413.972500", "153415.972500", "153417.972500", "153419.972500", "153421.972500", "153423.972500", "153425.972500", "153427.972500", "153429.972500", "153431.972500", "153433.972500", "153435.972500", "153437.972500", "153439.972500", "153441.972500", "153443.972500", "153445.972500", "153447.972500", "153449.972500", "153451.972500", "153453.972500", "153455.972500", "153457.972500", "153459.972500", "153501.972500", "153503.972500", "153505.972500", "153507.972500", "153509.972500", "153511.972500", "153513.972500", "153515.972500", "153517.972500", "153519.972500", "153521.972500", "153523.972500", "153525.972500", "153527.972500", "153529.972500", "153531.972500", "153533.972500", "153535.972500", "153537.972500", "153539.972500", "153541.972500", "153543.972500", "153545.972500", "153547.972500", "153549.972500", "153551.972500", "153553.972500", "153555.972500", "153557.972500", "153559.972500", "153601.972500", "153603.972500", "153605.972500", "153607.972500", "153609.972500", "153611.972500", "153613.972500", "153615.972500", "153617.972500", "153619.972500", "153621.972500", "153623.972500", "153625.972500", "153627.972500", "153629.972500", "153631.972500", "153633.972500", "153635.972500", "153637.972500", "153639.972500"],
      "ContentTime": ["152601.146000", "152601.150000", "152601.152000", "152601.155000", "152601.158000", "152601.160000", "152601.163000", "152601.166000", "152601.168000", "152601.171000", "152601.174000", "152601.176000", "152601.186000", "152601.189000", "152601.191000", "152601.195000", "152601.198000", "152601.201000", "152601.203000", "152601.206000", "152641.143000", "152641.145000", "152641.148000", "152641.151000", "152641.153000", "152641.156000", "152641.159000", "152641.161000", "152641.164000", "152641.167000", "152641.169000", "152641.172000", "152641.175000", "152641.177000", "152641.180000", "152641.183000", "152641.185000", "152641.188000", "152641.191000", "152641.194000", "152721.143000", "152721.145000", "152721.148000", "152721.151000", "152721.153000", "152721.156000", "152721.159000", "152721.161000", "152721.164000", "152721.167000", "152721.169000", "152721.172000", "152721.179000", "152721.181000", "152721.184000", "152721.186000", "152721.189000", "152721.193000", "152721.195000", "152721.198000", "152741.142000", "152741.145000", "152741.148000", "152741.150000", "152741.153000", "152741.155000", "152741.158000", "152741.165000", "152741.168000", "152741.170000", "152821.142000", "152821.144000", "152821.147000", "152821.150000", "152821.152000", "152821.155000", "152821.158000", "152821.160000", "152821.163000", "152821.166000", "152821.168000", "152821.171000", "152821.173000", "152821.176000", "152821.179000", "152821.182000", "152821.184000", "152821.187000", "152821.190000", "152821.193000", "152901.143000", "152901.145000", "152901.148000", "152901.151000", "152901.153000", "152901.156000", "152901.159000", "152901.161000", "152901.164000", "152901.167000", "152901.169000", "152901.172000", "152901.175000", "152901.177000", "152901.180000", "152901.183000", "152901.185000", "152901.189000", "152901.192000", "152901.194000", "152941.142000", "152941.145000", "152941.148000", "152941.151000", "152941.153000", "152941.156000", "152941.159000", "152941.161000", "152941.164000", "152941.167000", "152941.170000", "152941.172000", "152941.175000", "152941.178000", "152941.180000", "152941.183000", "152941.186000", "152941.190000", "152941.193000", "152941.195000", "153021.142000", "153021.145000", "153021.147000", "153021.150000", "153021.153000", "153021.155000", "153021.158000", "153021.161000", "153021.163000", "153021.166000", "153021.169000", "153021.171000", "153021.174000", "153021.177000", "153021.179000", "153021.182000", "153021.186000", "153021.189000", "153021.191000", "153021.194000", "153101.142000", "153101.144000", "153101.147000", "153101.150000", "153101.152000", "153101.155000", "153101.158000", "153101.160000", "153101.163000", "153101.166000", "153101.168000", "153101.171000", "153101.174000", "153101.176000", "153101.179000", "153101.181000", "153101.186000", "153101.189000", "153101.192000", "153101.194000", "153141.143000", "153141.145000", "153141.148000", "153141.151000", "153141.154000", "153141.156000", "153141.159000", "153141.162000", "153141.164000", "153141.167000", "153141.169000", "153141.172000", "153141.175000", "153141.177000", "153141.180000", "153141.184000", "153141.187000", "153141.189000", "153141.192000", "153141.195000", "153221.142000", "153221.144000", "153221.147000", "153221.150000", "153221.152000", "153221.155000", "153221.158000", "153221.160000", "153221.163000", "153221.166000", "153221.168000", "153221.171000", "153221.174000", "153221.177000", "153221.191000", "153221.194000", "153221.197000", "153221.199000", "153221.202000", "153221.205000", "153301.142000", "153301.145000", "153301.147000", "153301.150000", "153301.153000", "153301.155000", "153301.158000", "153301.161000", "153301.163000", "153301.166000", "153301.169000", "153301.171000", "153301.174000", "153301.177000", "153301.180000", "153301.183000", "153301.186000", "153301.188000", "153301.191000", "153301.194000", "153341.143000", "153341.146000", "153341.148000", "153341.151000", "153341.154000", "153341.156000", "153341.159000", "153341.162000", "153341.165000", "153341.167000", "153341.170000", "153341.172000", "153341.175000", "153341.178000", "153341.182000", "153341.184000", "153341.187000", "153341.190000", "153341.193000", "153341.195000", "153421.143000", "153421.145000", "153421.148000", "153421.151000", "153421.153000", "153421.156000", "153421.159000", "153421.162000", "153421.165000", "153421.167000", "153421.170000", "153421.173000", "153421.175000", "153421.179000", "153421.182000", "153421.184000", "153421.187000", "153421.190000", "153421.193000", "153421.195000", "153501.142000", "153501.152000", "153501.154000", "153501.157000", "153501.160000", "153501.163000", "153501.165000", "153501.168000", "153501.171000", "153501.173000", "153501.177000", "153501.180000", "153501.183000", "153501.185000", "153501.188000", "153501.191000", "153501.193000", "153501.196000", "153501.199000", "153501.202000", "153541.142000", "153541.145000", "153541.147000", "153541.150000", "153541.153000", "153541.155000", "153541.158000", "153541.161000", "153541.164000", "153541.166000", "153541.169000", "153541.172000", "153541.176000", "153541.179000", "153541.182000", "153541.184000", "153541.187000", "153541.192000", "153541.195000", "153541.197000", "153621.143000", "153621.145000", "153621.148000", "153621.151000", "153621.153000", "153621.156000", "153621.159000", "153621.162000", "153621.164000", "153621.167000", "153621.170000", "153621.173000", "153621.177000", "153621.179000", "153621.182000", "153621.185000", "153621.188000", "153621.190000", "153621.193000", "153621.196000", "153641.216000", "153641.219000", "153641.222000", "153641.225000", "153641.227000", "153641.230000", "153641.233000", "153641.236000", "153641.238000", "153641.241000", "153641.244000"],
      "DataSetTrailingPadding": [
        "\u0000\u0000\u0000\u0000\u0000\u0000\u0000\u0000\u0000\u0000\u0000\u0000\u0000\u0000\u0000\u0000\u0000\u0000\u0000\u0000\u0000\u0000\u0000\u0000\u0000\u0000\u0000\u0000\u0000\u0000\u0000\u0000\u0000\u0000\u0000\u0000\u0000\u0000\u0000\u0000\u0000\u0000\u0000\u0000\u0000\u0000",
        "\u0000\u0000\u0000\u0000\u0000\u0000\u0000\u0000\u0000\u0000\u0000\u0000\u0000\u0000\u0000\u0000\u0000\u0000\u0000\u0000\u0000\u0000\u0000\u0000\u0000\u0000\u0000\u0000\u0000\u0000\u0000\u0000\u0000\u0000\u0000\u0000\u0000\u0000\u0000\u0000\u0000\u0000\u0000\u0000\u0000\u0000",
        "\u0000\u0000\u0000\u0000\u0000\u0000\u0000\u0000\u0000\u0000\u0000\u0000\u0000\u0000\u0000\u0000\u0000\u0000\u0000\u0000\u0000\u0000\u0000\u0000\u0000\u0000\u0000\u0000\u0000\u0000\u0000\u0000\u0000\u0000\u0000\u0000\u0000\u0000\u0000\u0000\u0000\u0000\u0000\u0000\u0000\u0000",
        "\u0000\u0000\u0000\u0000\u0000\u0000\u0000\u0000\u0000\u0000\u0000\u0000\u0000\u0000\u0000\u0000\u0000\u0000\u0000\u0000\u0000\u0000\u0000\u0000\u0000\u0000\u0000\u0000\u0000\u0000\u0000\u0000\u0000\u0000\u0000\u0000\u0000\u0000\u0000\u0000\u0000\u0000\u0000\u0000\u0000\u0000",
        "\u0000\u0000\u0000\u0000\u0000\u0000\u0000\u0000\u0000\u0000\u0000\u0000\u0000\u0000\u0000\u0000\u0000\u0000\u0000\u0000\u0000\u0000\u0000\u0000\u0000\u0000\u0000\u0000\u0000\u0000\u0000\u0000\u0000\u0000\u0000\u0000\u0000\u0000\u0000\u0000\u0000\u0000\u0000\u0000",
        "\u0000\u0000\u0000\u0000\u0000\u0000\u0000\u0000\u0000\u0000\u0000\u0000\u0000\u0000\u0000\u0000\u0000\u0000\u0000\u0000\u0000\u0000\u0000\u0000\u0000\u0000\u0000\u0000\u0000\u0000\u0000\u0000\u0000\u0000\u0000\u0000\u0000\u0000\u0000\u0000\u0000\u0000\u0000\u0000",
        "\u0000\u0000\u0000\u0000\u0000\u0000\u0000\u0000\u0000\u0000\u0000\u0000\u0000\u0000\u0000\u0000\u0000\u0000\u0000\u0000\u0000\u0000\u0000\u0000\u0000\u0000\u0000\u0000\u0000\u0000\u0000\u0000\u0000\u0000\u0000\u0000\u0000\u0000\u0000\u0000\u0000\u0000\u0000\u0000",
        "\u0000\u0000\u0000\u0000\u0000\u0000\u0000\u0000\u0000\u0000\u0000\u0000\u0000\u0000\u0000\u0000\u0000\u0000\u0000\u0000\u0000\u0000\u0000\u0000\u0000\u0000\u0000\u0000\u0000\u0000\u0000\u0000\u0000\u0000\u0000\u0000\u0000\u0000\u0000\u0000\u0000\u0000\u0000\u0000",
        "\u0000\u0000\u0000\u0000\u0000\u0000\u0000\u0000\u0000\u0000\u0000\u0000\u0000\u0000\u0000\u0000\u0000\u0000\u0000\u0000\u0000\u0000\u0000\u0000\u0000\u0000\u0000\u0000\u0000\u0000\u0000\u0000\u0000\u0000\u0000\u0000\u0000\u0000\u0000\u0000\u0000\u0000\u0000\u0000",
        "\u0000\u0000\u0000\u0000\u0000\u0000\u0000\u0000\u0000\u0000\u0000\u0000\u0000\u0000\u0000\u0000\u0000\u0000\u0000\u0000\u0000\u0000\u0000\u0000\u0000\u0000\u0000\u0000\u0000\u0000\u0000\u0000\u0000\u0000\u0000\u0000\u0000\u0000\u0000\u0000\u0000\u0000\u0000\u0000",
        "\u0000\u0000\u0000\u0000\u0000\u0000\u0000\u0000\u0000\u0000\u0000\u0000\u0000\u0000\u0000\u0000\u0000\u0000\u0000\u0000\u0000\u0000\u0000\u0000\u0000\u0000\u0000\u0000\u0000\u0000\u0000\u0000\u0000\u0000\u0000\u0000\u0000\u0000\u0000\u0000\u0000\u0000\u0000\u0000",
        "\u0000\u0000\u0000\u0000\u0000\u0000\u0000\u0000\u0000\u0000\u0000\u0000\u0000\u0000\u0000\u0000\u0000\u0000\u0000\u0000\u0000\u0000\u0000\u0000\u0000\u0000\u0000\u0000\u0000\u0000\u0000\u0000\u0000\u0000\u0000\u0000\u0000\u0000\u0000\u0000\u0000\u0000\u0000\u0000",
        "\u0000\u0000\u0000\u0000\u0000\u0000\u0000\u0000\u0000\u0000\u0000\u0000\u0000\u0000\u0000\u0000\u0000\u0000\u0000\u0000\u0000\u0000\u0000\u0000\u0000\u0000\u0000\u0000\u0000\u0000\u0000\u0000\u0000\u0000\u0000\u0000\u0000\u0000\u0000\u0000\u0000\u0000\u0000\u0000",
        "\u0000\u0000\u0000\u0000\u0000\u0000\u0000\u0000\u0000\u0000\u0000\u0000\u0000\u0000\u0000\u0000\u0000\u0000\u0000\u0000\u0000\u0000\u0000\u0000\u0000\u0000\u0000\u0000\u0000\u0000\u0000\u0000\u0000\u0000\u0000\u0000\u0000\u0000\u0000\u0000\u0000\u0000\u0000\u0000",
        "\u0000\u0000\u0000\u0000\u0000\u0000\u0000\u0000\u0000\u0000\u0000\u0000\u0000\u0000\u0000\u0000\u0000\u0000\u0000\u0000\u0000\u0000\u0000\u0000\u0000\u0000\u0000\u0000\u0000\u0000\u0000\u0000\u0000\u0000\u0000\u0000\u0000\u0000\u0000\u0000\u0000\u0000\u0000\u0000",
        "\u0000\u0000\u0000\u0000\u0000\u0000\u0000\u0000\u0000\u0000\u0000\u0000\u0000\u0000\u0000\u0000\u0000\u0000\u0000\u0000\u0000\u0000\u0000\u0000\u0000\u0000\u0000\u0000\u0000\u0000\u0000\u0000\u0000\u0000\u0000\u0000\u0000\u0000\u0000\u0000\u0000\u0000\u0000\u0000",
        "\u0000\u0000\u0000\u0000\u0000\u0000\u0000\u0000\u0000\u0000\u0000\u0000\u0000\u0000\u0000\u0000\u0000\u0000\u0000\u0000\u0000\u0000\u0000\u0000\u0000\u0000\u0000\u0000\u0000\u0000\u0000\u0000\u0000\u0000\u0000\u0000\u0000\u0000\u0000\u0000\u0000\u0000\u0000\u0000",
        "\u0000\u0000\u0000\u0000\u0000\u0000\u0000\u0000\u0000\u0000\u0000\u0000\u0000\u0000\u0000\u0000\u0000\u0000\u0000\u0000\u0000\u0000\u0000\u0000\u0000\u0000\u0000\u0000\u0000\u0000\u0000\u0000\u0000\u0000\u0000\u0000\u0000\u0000\u0000\u0000\u0000\u0000\u0000\u0000",
        "\u0000\u0000\u0000\u0000\u0000\u0000\u0000\u0000\u0000\u0000\u0000\u0000\u0000\u0000\u0000\u0000\u0000\u0000\u0000\u0000\u0000\u0000\u0000\u0000\u0000\u0000\u0000\u0000\u0000\u0000\u0000\u0000\u0000\u0000\u0000\u0000\u0000\u0000\u0000\u0000\u0000\u0000\u0000\u0000",
        "\u0000\u0000\u0000\u0000\u0000\u0000\u0000\u0000\u0000\u0000\u0000\u0000\u0000\u0000\u0000\u0000\u0000\u0000\u0000\u0000\u0000\u0000\u0000\u0000\u0000\u0000\u0000\u0000\u0000\u0000\u0000\u0000\u0000\u0000\u0000\u0000\u0000\u0000\u0000\u0000\u0000\u0000\u0000\u0000",
        "\u0000\u0000\u0000\u0000\u0000\u0000\u0000\u0000\u0000\u0000\u0000\u0000\u0000\u0000\u0000\u0000\u0000\u0000\u0000\u0000\u0000\u0000\u0000\u0000\u0000\u0000\u0000\u0000\u0000\u0000\u0000\u0000\u0000\u0000\u0000\u0000\u0000\u0000\u0000\u0000\u0000\u0000\u0000\u0000",
        "\u0000\u0000\u0000\u0000\u0000\u0000\u0000\u0000\u0000\u0000\u0000\u0000\u0000\u0000\u0000\u0000\u0000\u0000\u0000\u0000\u0000\u0000\u0000\u0000\u0000\u0000\u0000\u0000\u0000\u0000\u0000\u0000\u0000\u0000\u0000\u0000\u0000\u0000\u0000\u0000\u0000\u0000\u0000\u0000",
        "\u0000\u0000\u0000\u0000\u0000\u0000\u0000\u0000\u0000\u0000\u0000\u0000\u0000\u0000\u0000\u0000\u0000\u0000\u0000\u0000\u0000\u0000\u0000\u0000\u0000\u0000\u0000\u0000\u0000\u0000\u0000\u0000\u0000\u0000\u0000\u0000\u0000\u0000\u0000\u0000\u0000\u0000\u0000\u0000",
        "\u0000\u0000\u0000\u0000\u0000\u0000\u0000\u0000\u0000\u0000\u0000\u0000\u0000\u0000\u0000\u0000\u0000\u0000\u0000\u0000\u0000\u0000\u0000\u0000\u0000\u0000\u0000\u0000\u0000\u0000\u0000\u0000\u0000\u0000\u0000\u0000\u0000\u0000\u0000\u0000\u0000\u0000\u0000\u0000",
        "\u0000\u0000\u0000\u0000\u0000\u0000\u0000\u0000\u0000\u0000\u0000\u0000\u0000\u0000\u0000\u0000\u0000\u0000\u0000\u0000\u0000\u0000\u0000\u0000\u0000\u0000\u0000\u0000\u0000\u0000\u0000\u0000\u0000\u0000\u0000\u0000\u0000\u0000\u0000\u0000\u0000\u0000\u0000\u0000",
        "\u0000\u0000\u0000\u0000\u0000\u0000\u0000\u0000\u0000\u0000\u0000\u0000\u0000\u0000\u0000\u0000\u0000\u0000\u0000\u0000\u0000\u0000\u0000\u0000\u0000\u0000\u0000\u0000\u0000\u0000\u0000\u0000\u0000\u0000\u0000\u0000\u0000\u0000\u0000\u0000\u0000\u0000\u0000\u0000",
        "\u0000\u0000\u0000\u0000\u0000\u0000\u0000\u0000\u0000\u0000\u0000\u0000\u0000\u0000\u0000\u0000\u0000\u0000\u0000\u0000\u0000\u0000\u0000\u0000\u0000\u0000\u0000\u0000\u0000\u0000\u0000\u0000\u0000\u0000\u0000\u0000\u0000\u0000\u0000\u0000\u0000\u0000\u0000\u0000",
        "\u0000\u0000\u0000\u0000\u0000\u0000\u0000\u0000\u0000\u0000\u0000\u0000\u0000\u0000\u0000\u0000\u0000\u0000\u0000\u0000\u0000\u0000\u0000\u0000\u0000\u0000\u0000\u0000\u0000\u0000\u0000\u0000\u0000\u0000\u0000\u0000\u0000\u0000\u0000\u0000\u0000\u0000\u0000\u0000",
        "\u0000\u0000\u0000\u0000\u0000\u0000\u0000\u0000\u0000\u0000\u0000\u0000\u0000\u0000\u0000\u0000\u0000\u0000\u0000\u0000\u0000\u0000\u0000\u0000\u0000\u0000\u0000\u0000\u0000\u0000\u0000\u0000\u0000\u0000\u0000\u0000\u0000\u0000\u0000\u0000\u0000\u0000\u0000\u0000",
        "\u0000\u0000\u0000\u0000\u0000\u0000\u0000\u0000\u0000\u0000\u0000\u0000\u0000\u0000\u0000\u0000\u0000\u0000\u0000\u0000\u0000\u0000\u0000\u0000\u0000\u0000\u0000\u0000\u0000\u0000\u0000\u0000\u0000\u0000\u0000\u0000\u0000\u0000\u0000\u0000\u0000\u0000\u0000\u0000",
        "\u0000\u0000\u0000\u0000\u0000\u0000\u0000\u0000\u0000\u0000\u0000\u0000\u0000\u0000\u0000\u0000\u0000\u0000\u0000\u0000\u0000\u0000\u0000\u0000\u0000\u0000\u0000\u0000\u0000\u0000\u0000\u0000\u0000\u0000\u0000\u0000\u0000\u0000\u0000\u0000\u0000\u0000\u0000\u0000",
        "\u0000\u0000\u0000\u0000\u0000\u0000\u0000\u0000\u0000\u0000\u0000\u0000\u0000\u0000\u0000\u0000\u0000\u0000\u0000\u0000\u0000\u0000\u0000\u0000\u0000\u0000\u0000\u0000\u0000\u0000\u0000\u0000\u0000\u0000\u0000\u0000\u0000\u0000\u0000\u0000\u0000\u0000\u0000\u0000",
        "\u0000\u0000\u0000\u0000\u0000\u0000\u0000\u0000\u0000\u0000\u0000\u0000\u0000\u0000\u0000\u0000\u0000\u0000\u0000\u0000\u0000\u0000\u0000\u0000\u0000\u0000\u0000\u0000\u0000\u0000\u0000\u0000\u0000\u0000\u0000\u0000\u0000\u0000\u0000\u0000\u0000\u0000\u0000\u0000",
        "\u0000\u0000\u0000\u0000\u0000\u0000\u0000\u0000\u0000\u0000\u0000\u0000\u0000\u0000\u0000\u0000\u0000\u0000\u0000\u0000\u0000\u0000\u0000\u0000\u0000\u0000\u0000\u0000\u0000\u0000\u0000\u0000\u0000\u0000\u0000\u0000\u0000\u0000\u0000\u0000\u0000\u0000\u0000\u0000",
        "\u0000\u0000\u0000\u0000\u0000\u0000\u0000\u0000\u0000\u0000\u0000\u0000\u0000\u0000\u0000\u0000\u0000\u0000\u0000\u0000\u0000\u0000\u0000\u0000\u0000\u0000\u0000\u0000\u0000\u0000\u0000\u0000\u0000\u0000\u0000\u0000\u0000\u0000\u0000\u0000\u0000\u0000\u0000\u0000",
        "\u0000\u0000\u0000\u0000\u0000\u0000\u0000\u0000\u0000\u0000\u0000\u0000\u0000\u0000\u0000\u0000\u0000\u0000\u0000\u0000\u0000\u0000\u0000\u0000\u0000\u0000\u0000\u0000\u0000\u0000\u0000\u0000\u0000\u0000\u0000\u0000\u0000\u0000\u0000\u0000\u0000\u0000\u0000\u0000",
        "\u0000\u0000\u0000\u0000\u0000\u0000\u0000\u0000\u0000\u0000\u0000\u0000\u0000\u0000\u0000\u0000\u0000\u0000\u0000\u0000\u0000\u0000\u0000\u0000\u0000\u0000\u0000\u0000\u0000\u0000\u0000\u0000\u0000\u0000\u0000\u0000\u0000\u0000\u0000\u0000\u0000\u0000\u0000\u0000",
        "\u0000\u0000\u0000\u0000\u0000\u0000\u0000\u0000\u0000\u0000\u0000\u0000\u0000\u0000\u0000\u0000\u0000\u0000\u0000\u0000\u0000\u0000\u0000\u0000\u0000\u0000\u0000\u0000\u0000\u0000\u0000\u0000\u0000\u0000\u0000\u0000\u0000\u0000\u0000\u0000\u0000\u0000\u0000\u0000",
        "\u0000\u0000\u0000\u0000\u0000\u0000\u0000\u0000\u0000\u0000\u0000\u0000\u0000\u0000\u0000\u0000\u0000\u0000\u0000\u0000\u0000\u0000\u0000\u0000\u0000\u0000\u0000\u0000\u0000\u0000\u0000\u0000\u0000\u0000\u0000\u0000\u0000\u0000\u0000\u0000\u0000\u0000\u0000\u0000",
        "\u0000\u0000\u0000\u0000\u0000\u0000\u0000\u0000\u0000\u0000\u0000\u0000\u0000\u0000\u0000\u0000\u0000\u0000\u0000\u0000\u0000\u0000\u0000\u0000\u0000\u0000\u0000\u0000\u0000\u0000\u0000\u0000\u0000\u0000\u0000\u0000\u0000\u0000\u0000\u0000\u0000\u0000\u0000\u0000",
