{
  "AcquisitionMatrixPE": 70,
  "AcquisitionNumber": 1,
  "AcquisitionTime": "14:51:55.650000",
  "BandwidthPerPixelPhaseEncode": 51.948,
  "BaseResolution": 70,
  "BodyPartExamined": "HEAD",
  "CoilCombinationMethod": "Sum of Squares",
  "ConsistencyInfo": "N4_VE11C_LATEST_20160120",
  "ConversionSoftware": "dcm2niix",
  "ConversionSoftwareVersion": "v1.0.20220720",
  "DerivedVendorReportedEchoSpacing": 0.000550001,
  "DeviceSerialNumber": "66061",
  "DwellTime": 3.3e-06,
  "EchoTime": 0.022,
  "EchoTrainLength": 35,
  "EffectiveEchoSpacing": 0.000275,
  "FlipAngle": 90,
  "HeudiconvVersion": "1.1.1",
  "ImageOrientationPatientDICOM": [0.999976, 0.00222263, 0.00660615, -0.0012217, 0.989013, -0.147822],
  "ImageOrientationText": "Tra>Cor(-8.5)>Sag(0.4)",
  "ImageType": [
    "ORIGINAL",
    "PRIMARY",
    "M",
    "ND",
    "NORM",
    "MOSAIC"
],
  "ImagingFrequency": 123.254,
  "InPlanePhaseEncodingDirectionDICOM": "COL",
  "InstitutionAddress": "Street StreetNo,City/1c4204/,District,KR,ZIP",
  "InstitutionName": "SKKU",
  "InstitutionalDepartmentName": "Department",
  "MRAcquisitionType": "2D",
  "MagneticFieldStrength": 3,
  "Manufacturer": "Siemens",
  "ManufacturersModelName": "Prisma",
  "MatrixCoilMode": "GRAPPA",
  "Modality": "MR",
  "NonlinearGradientCorrection": false,
  "ParallelReductionFactorInPlane": 2,
  "PartialFourier": 1,
  "PatientPosition": "HFS",
  "PercentPhaseFOV": 100,
  "PercentSampling": 100,
  "PhaseEncodingDirection": "j-",
  "PhaseEncodingSteps": 70,
  "PhaseResolution": 1,
  "PixelBandwidth": 2165,
  "ProcedureStepDescription": "Head^PI:Others",
  "ProtocolName": "BOLD_ep2d_3x3x3_dimension2",
  "PulseSequenceDetails": "%SiemensSeq%\\ep2d_pace",
  "ReceiveCoilActiveElements": "HC1-7",
  "ReceiveCoilName": "HeadNeck_64",
  "ReconMatrixPE": 70,
  "RefLinesPE": 24,
  "RepetitionTime": 2,
  "SAR": 0.121895,
  "ScanOptions": "FS",
  "ScanningSequence": "EP",
  "SequenceName": "*epfid2d1_70",
  "SequenceVariant": "SK",
  "SeriesDescription": "BOLD_ep2d_3x3x3_dimension2",
  "SeriesNumber": 10,
  "ShimSetting": [5047, 3684, 4457, 221, -81, -25, 93, 20],
  "SliceThickness": 3,
  "SliceTiming": [0.99, 0, 1.0375, 0.0475, 1.085, 0.095, 1.1325, 0.1425, 1.18, 0.19, 1.2275, 0.2375, 1.2725, 0.2825, 1.32, 0.33, 1.3675, 0.3775, 1.415, 0.425, 1.4625, 0.4725, 1.51, 0.52, 1.5575, 0.5675, 1.6025, 0.6125, 1.65, 0.66, 1.6975, 0.7075, 1.745, 0.755, 1.7925, 0.8025, 1.84, 0.85, 1.8875, 0.8975, 1.9325, 0.9425],
  "SoftwareVersions": "syngo MR E11",
  "SpacingBetweenSlices": 3,
  "StationName": "AWP66061",
  "TaskName": "dimension",
  "TotalReadoutTime": 0.018975,
  "TxRefAmp": 242.473,
  "dcmmeta_affine": [
    [-2.999927043914795, -0.0036651091650128365, 0.02058638073503971, 107.2215576171875],
    [-0.0066678826697170734, 2.9670395851135254, -0.4434308707714081, -84.92347717285156],
    [0.019818462431430817, 0.44346585869789124, 2.966975688934326, -72.89973449707031],
    [0.0, 0.0, 0.0, 1.0]
],
  "dcmmeta_reorient_transform": [
    [0.0, -1.0, 0.0, 69.0],
    [1.0, 0.0, 0.0, 0.0],
    [0.0, 0.0, -1.0, 41.0],
    [0.0, 0.0, 0.0, 1.0]
],
  "dcmmeta_shape": [70, 70, 42, 437],
  "dcmmeta_slice_dim": 2,
  "dcmmeta_version": 0.6,
  "global": {
    "const": {
      "AcquisitionMatrix": [70, 0, 0, 70],
      "AngioFlag": "N",
      "BitsAllocated": 16,
      "BitsStored": 12,
      "BodyPartExamined": "HEAD",
      "Columns": 490,
      "EchoNumbers": 1,
      "EchoTime": 22.0,
      "EchoTrainLength": 35,
      "FlipAngle": 90.0,
      "HighBit": 11,
      "ImageOrientationPatient": [0.99997570903251, 0.00222262748225, 0.00660615410159, -0.001221703065, 0.98901323420476, -0.1478219537466],
      "ImagePositionPatient": [-737.02773281351, -726.10019150226, 168.31136634017],
      "ImageType": [
        "ORIGINAL",
        "PRIMARY",
        "M",
        "ND",
        "NORM",
        "MOSAIC"
],
      "ImagedNucleus": "1H",
      "ImagingFrequency": 123.254479,
      "InPlanePhaseEncodingDirection": "COL",
      "MRAcquisitionType": "2D",
      "MagneticFieldStrength": 3.0,
      "Manufacturer": "SIEMENS",
      "ManufacturerModelName": "Prisma",
      "Modality": "MR",
      "NumberOfAverages": 1.0,
      "NumberOfPhaseEncodingSteps": 70,
      "PercentPhaseFieldOfView": 100.0,
      "PercentSampling": 100.0,
      "PerformedProcedureStepStartTime": "140238.560000",
      "PhotometricInterpretation": "MONOCHROME2",
      "PixelBandwidth": 2165.0,
      "PixelRepresentation": 0,
      "PixelSpacing": [3.0, 3.0],
      "ProtocolName": "BOLD_ep2d_3x3x3_dimension2",
      "RepetitionTime": 2000.0,
      "Rows": 490,
      "SAR": 0.1218954586649,
      "SamplesPerPixel": 1,
      "ScanOptions": "FS",
      "ScanningSequence": "EP",
      "SequenceName": "*epfid2d1_70",
      "SequenceVariant": "SK",
      "SeriesDescription": "BOLD_ep2d_3x3x3_dimension2",
      "SeriesNumber": 10,
      "SeriesTime": "145248.822000",
      "SliceLocation": 64.191078656437,
      "SliceThickness": 3.0,
      "SmallestImagePixelValue": 0,
      "SoftwareVersions": "syngo MR E11",
      "SpacingBetweenSlices": 2.9999999240976,
      "SpecificCharacterSet": "ISO_IR 100",
      "StudyID": "1",
      "StudyTime": "140238.499000",
      "TransmitCoilName": "Body",
      "VariableFlipAngleFlag": "N",
      "WindowCenterWidthExplanation": "Algo1",
      "dBdt": 0.0},
    "slices": {}
  },
  "time": {
    "samples": {
      "AcquisitionNumber": [1, 2, 3, 4, 5, 6, 7, 8, 9, 10, 11, 12, 13, 14, 15, 16, 17, 18, 19, 20, 21, 22, 23, 24, 25, 26, 27, 28, 29, 30, 31, 32, 33, 34, 35, 36, 37, 38, 39, 40, 41, 42, 43, 44, 45, 46, 47, 48, 49, 50, 51, 52, 53, 54, 55, 56, 57, 58, 59, 60, 61, 62, 63, 64, 65, 66, 67, 68, 69, 70, 71, 72, 73, 74, 75, 76, 77, 78, 79, 80, 81, 82, 83, 84, 85, 86, 87, 88, 89, 90, 91, 92, 93, 94, 95, 96, 97, 98, 99, 100, 101, 102, 103, 104, 105, 106, 107, 108, 109, 110, 111, 112, 113, 114, 115, 116, 117, 118, 119, 120, 121, 122, 123, 124, 125, 126, 127, 128, 129, 130, 131, 132, 133, 134, 135, 136, 137, 138, 139, 140, 141, 142, 143, 144, 145, 146, 147, 148, 149, 150, 151, 152, 153, 154, 155, 156, 157, 158, 159, 160, 161, 162, 163, 164, 165, 166, 167, 168, 169, 170, 171, 172, 173, 174, 175, 176, 177, 178, 179, 180, 181, 182, 183, 184, 185, 186, 187, 188, 189, 190, 191, 192, 193, 194, 195, 196, 197, 198, 199, 200, 201, 202, 203, 204, 205, 206, 207, 208, 209, 210, 211, 212, 213, 214, 215, 216, 217, 218, 219, 220, 221, 222, 223, 224, 225, 226, 227, 228, 229, 230, 231, 232, 233, 234, 235, 236, 237, 238, 239, 240, 241, 242, 243, 244, 245, 246, 247, 248, 249, 250, 251, 252, 253, 254, 255, 256, 257, 258, 259, 260, 261, 262, 263, 264, 265, 266, 267, 268, 269, 270, 271, 272, 273, 274, 275, 276, 277, 278, 279, 280, 281, 282, 283, 284, 285, 286, 287, 288, 289, 290, 291, 292, 293, 294, 295, 296, 297, 298, 299, 300, 301, 302, 303, 304, 305, 306, 307, 308, 309, 310, 311, 312, 313, 314, 315, 316, 317, 318, 319, 320, 321, 322, 323, 324, 325, 326, 327, 328, 329, 330, 331, 332, 333, 334, 335, 336, 337, 338, 339, 340, 341, 342, 343, 344, 345, 346, 347, 348, 349, 350, 351, 352, 353, 354, 355, 356, 357, 358, 359, 360, 361, 362, 363, 364, 365, 366, 367, 368, 369, 370, 371, 372, 373, 374, 375, 376, 377, 378, 379, 380, 381, 382, 383, 384, 385, 386, 387, 388, 389, 390, 391, 392, 393, 394, 395, 396, 397, 398, 399, 400, 401, 402, 403, 404, 405, 406, 407, 408, 409, 410, 411, 412, 413, 414, 415, 416, 417, 418, 419, 420, 421, 422, 423, 424, 425, 426, 427, 428, 429, 430, 431, 432, 433, 434, 435, 436, 437],
      "AcquisitionTime": ["145155.650000", "145157.650000", "145159.650000", "145201.650000", "145203.650000", "145205.650000", "145207.650000", "145209.650000", "145211.650000", "145213.650000", "145215.650000", "145217.650000", "145219.650000", "145221.650000", "145223.650000", "145225.650000", "145227.650000", "145229.650000", "145231.650000", "145233.650000", "145235.650000", "145237.650000", "145239.650000", "145241.650000", "145243.650000", "145245.650000", "145247.650000", "145249.650000", "145251.650000", "145253.650000", "145255.650000", "145257.650000", "145259.650000", "145301.650000", "145303.650000", "145305.650000", "145307.650000", "145309.650000", "145311.650000", "145313.650000", "145315.650000", "145317.650000", "145319.650000", "145321.650000", "145323.650000", "145325.650000", "145327.650000", "145329.650000", "145331.650000", "145333.650000", "145335.650000", "145337.650000", "145339.650000", "145341.650000", "145343.650000", "145345.650000", "145347.650000", "145349.650000", "145351.650000", "145353.650000", "145355.650000", "145357.650000", "145359.650000", "145401.650000", "145403.650000", "145405.650000", "145407.650000", "145409.650000", "145411.650000", "145413.650000", "145415.650000", "145417.650000", "145419.650000", "145421.650000", "145423.650000", "145425.650000", "145427.650000", "145429.650000", "145431.650000", "145433.650000", "145435.650000", "145437.650000", "145439.650000", "145441.650000", "145443.650000", "145445.650000", "145447.650000", "145449.650000", "145451.650000", "145453.650000", "145455.650000", "145457.650000", "145459.650000", "145501.650000", "145503.650000", "145505.650000", "145507.650000", "145509.650000", "145511.650000", "145513.650000", "145515.650000", "145517.650000", "145519.650000", "145521.650000", "145523.650000", "145525.650000", "145527.650000", "145529.650000", "145531.650000", "145533.650000", "145535.650000", "145537.650000", "145539.650000", "145541.650000", "145543.650000", "145545.650000", "145547.650000", "145549.650000", "145551.650000", "145553.650000", "145555.650000", "145557.650000", "145559.650000", "145601.650000", "145603.650000", "145605.650000", "145607.650000", "145609.650000", "145611.650000", "145613.650000", "145615.650000", "145617.650000", "145619.650000", "145621.650000", "145623.650000", "145625.650000", "145627.650000", "145629.650000", "145631.650000", "145633.650000", "145635.650000", "145637.650000", "145639.650000", "145641.650000", "145643.650000", "145645.650000", "145647.650000", "145649.650000", "145651.650000", "145653.650000", "145655.650000", "145657.650000", "145659.650000", "145701.650000", "145703.650000", "145705.650000", "145707.650000", "145709.650000", "145711.650000", "145713.650000", "145715.650000", "145717.650000", "145719.650000", "145721.650000", "145723.650000", "145725.650000", "145727.650000", "145729.650000", "145731.650000", "145733.650000", "145735.650000", "145737.650000", "145739.650000", "145741.650000", "145743.650000", "145745.650000", "145747.650000", "145749.650000", "145751.650000", "145753.650000", "145755.650000", "145757.650000", "145759.650000", "145801.650000", "145803.650000", "145805.650000", "145807.650000", "145809.650000", "145811.650000", "145813.650000", "145815.650000", "145817.650000", "145819.650000", "145821.650000", "145823.650000", "145825.650000", "145827.650000", "145829.650000", "145831.650000", "145833.650000", "145835.650000", "145837.650000", "145839.650000", "145841.650000", "145843.650000", "145845.650000", "145847.650000", "145849.650000", "145851.650000", "145853.650000", "145855.650000", "145857.650000", "145859.650000", "145901.650000", "145903.650000", "145905.650000", "145907.650000", "145909.650000", "145911.650000", "145913.650000", "145915.650000", "145917.650000", "145919.650000", "145921.650000", "145923.650000", "145925.650000", "145927.650000", "145929.650000", "145931.650000", "145933.650000", "145935.650000", "145937.650000", "145939.650000", "145941.650000", "145943.650000", "145945.650000", "145947.650000", "145949.650000", "145951.650000", "145953.650000", "145955.650000", "145957.650000", "145959.650000", "150001.650000", "150003.650000", "150005.650000", "150007.650000", "150009.650000", "150011.650000", "150013.650000", "150015.650000", "150017.650000", "150019.650000", "150021.650000", "150023.650000", "150025.650000", "150027.650000", "150029.650000", "150031.650000", "150033.650000", "150035.650000", "150037.650000", "150039.650000", "150041.650000", "150043.650000", "150045.650000", "150047.650000", "150049.650000", "150051.650000", "150053.650000", "150055.650000", "150057.650000", "150059.650000", "150101.650000", "150103.650000", "150105.650000", "150107.650000", "150109.650000", "150111.650000", "150113.650000", "150115.650000", "150117.650000", "150119.650000", "150121.650000", "150123.650000", "150125.650000", "150127.650000", "150129.650000", "150131.650000", "150133.650000", "150135.650000", "150137.650000", "150139.650000", "150141.650000", "150143.650000", "150145.650000", "150147.650000", "150149.650000", "150151.650000", "150153.650000", "150155.650000", "150157.650000", "150159.650000", "150201.650000", "150203.650000", "150205.650000", "150207.650000", "150209.650000", "150211.650000", "150213.650000", "150215.650000", "150217.650000", "150219.650000", "150221.650000", "150223.650000", "150225.650000", "150227.650000", "150229.650000", "150231.650000", "150233.650000", "150235.650000", "150237.650000", "150239.650000", "150241.650000", "150243.650000", "150245.650000", "150247.650000", "150249.650000", "150251.650000", "150253.650000", "150255.650000", "150257.650000", "150259.650000", "150301.650000", "150303.650000", "150305.650000", "150307.650000", "150309.650000", "150311.650000", "150313.650000", "150315.650000", "150317.650000", "150319.650000", "150321.650000", "150323.650000", "150325.650000", "150327.650000", "150329.650000", "150331.650000", "150333.650000", "150335.650000", "150337.650000", "150339.650000", "150341.650000", "150343.650000", "150345.650000", "150347.650000", "150349.650000", "150351.650000", "150353.650000", "150355.650000", "150357.650000", "150359.650000", "150401.650000", "150403.650000", "150405.650000", "150407.650000", "150409.650000", "150411.650000", "150413.650000", "150415.650000", "150417.650000", "150419.650000", "150421.650000", "150423.650000", "150425.650000", "150427.650000", "150429.650000", "150431.650000", "150433.650000", "150435.650000", "150437.650000", "150439.650000", "150441.650000", "150443.650000", "150445.650000", "150447.650000", "150449.650000", "150451.650000", "150453.650000", "150455.650000", "150457.650000", "150459.650000", "150501.650000", "150503.650000", "150505.650000", "150507.650000", "150509.650000", "150511.650000", "150513.650000", "150515.650000", "150517.650000", "150519.650000", "150521.650000", "150523.650000", "150525.650000", "150527.650000", "150529.650000", "150531.650000", "150533.650000", "150535.650000", "150537.650000", "150539.650000", "150541.650000", "150543.650000", "150545.650000", "150547.650000", "150549.650000", "150551.650000", "150553.650000", "150555.650000", "150557.650000", "150559.650000", "150601.650000", "150603.650000", "150605.650000", "150607.650000", "150609.650000", "150611.650000", "150613.650000", "150615.650000", "150617.650000", "150619.650000", "150621.650000", "150623.650000", "150625.650000", "150627.650000"],
      "ContentTime": ["145248.825000", "145248.829000", "145248.832000", "145248.834000", "145248.837000", "145248.840000", "145248.842000", "145248.845000", "145248.848000", "145248.850000", "145248.853000", "145248.856000", "145248.858000", "145248.868000", "145248.870000", "145248.873000", "145248.880000", "145248.883000", "145248.886000", "145248.888000", "145248.891000", "145248.894000", "145248.896000", "145248.899000", "145248.902000", "145248.904000", "145328.821000", "145328.824000", "145328.826000", "145328.829000", "145328.832000", "145328.834000", "145328.837000", "145328.839000", "145328.842000", "145328.845000", "145328.848000", "145328.854000", "145328.857000", "145328.860000", "145328.862000", "145328.865000", "145328.868000", "145328.871000", "145328.873000", "145328.876000", "145408.822000", "145408.824000", "145408.827000", "145408.830000", "145408.832000", "145408.835000", "145408.838000", "145408.840000", "145408.843000", "145408.846000", "145408.849000", "145408.851000", "145408.854000", "145408.857000", "145408.859000", "145408.862000", "145408.865000", "145408.874000", "145408.876000", "145408.879000", "145448.821000", "145448.823000", "145448.826000", "145448.829000", "145448.832000", "145448.834000", "145448.837000", "145448.840000", "145448.842000", "145448.845000", "145448.848000", "145448.850000", "145448.853000", "145448.856000", "145448.858000", "145448.861000", "145448.864000", "145448.867000", "145448.869000", "145448.872000", "145528.821000", "145528.823000", "145528.826000", "145528.829000", "145528.832000", "145528.834000", "145528.837000", "145528.839000", "145528.842000", "145528.845000", "145528.848000", "145528.850000", "145528.853000", "145528.856000", "145528.859000", "145528.861000", "145528.864000", "145528.867000", "145528.869000", "145528.872000", "145608.821000", "145608.823000", "145608.826000", "145608.829000", "145608.832000", "145608.834000", "145608.837000", "145608.839000", "145608.842000", "145608.845000", "145608.848000", "145608.850000", "145608.853000", "145608.856000", "145608.859000", "145608.861000", "145608.864000", "145608.867000", "145608.869000", "145608.872000", "145648.821000", "145648.823000", "145648.826000", "145648.829000", "145648.832000", "145648.834000", "145648.837000", "145648.840000", "145648.842000", "145648.845000", "145648.848000", "145648.851000", "145648.853000", "145648.856000", "145648.859000", "145648.861000", "145648.864000", "145648.867000", "145648.869000", "145648.872000", "145728.821000", "145728.823000", "145728.826000", "145728.829000", "145728.832000", "145728.834000", "145728.837000", "145728.840000", "145728.843000", "145728.845000", "145728.848000", "145728.851000", "145728.853000", "145728.856000", "145728.859000", "145728.861000", "145728.864000", "145728.867000", "145728.869000", "145728.872000", "145748.821000", "145748.824000", "145748.826000", "145748.829000", "145748.832000", "145748.835000", "145748.837000", "145748.840000", "145748.843000", "145748.845000", "145828.822000", "145828.824000", "145828.827000", "145828.830000", "145828.833000", "145828.835000", "145828.838000", "145828.841000", "145828.843000", "145828.846000", "145828.849000", "145828.852000", "145828.854000", "145828.857000", "145828.860000", "145828.862000", "145828.865000", "145828.868000", "145828.871000", "145828.873000", "145908.821000", "145908.823000", "145908.826000", "145908.829000", "145908.832000", "145908.834000", "145908.837000", "145908.840000", "145908.843000", "145908.845000", "145908.848000", "145908.851000", "145908.853000", "145908.856000", "145908.859000", "145908.862000", "145908.864000", "145908.867000", "145908.870000", "145908.872000", "145948.821000", "145948.823000", "145948.826000", "145948.829000", "145948.832000", "145948.834000", "145948.837000", "145948.840000", "145948.843000", "145948.845000", "145948.848000", "145948.851000", "145948.853000", "145948.856000", "145948.859000", "145948.861000", "145948.864000", "145948.867000", "145948.870000", "145948.872000", "150028.821000", "150028.823000", "150028.826000", "150028.829000", "150028.832000", "150028.834000", "150028.837000", "150028.840000", "150028.843000", "150028.845000", "150028.848000", "150028.851000", "150028.854000", "150028.856000", "150028.859000", "150028.862000", "150028.864000", "150028.867000", "150028.870000", "150028.873000", "150108.822000", "150108.825000", "150108.828000", "150108.830000", "150108.833000", "150108.836000", "150108.838000", "150108.841000", "150108.844000", "150108.846000", "150108.849000", "150108.852000", "150108.854000", "150108.857000", "150108.860000", "150108.863000", "150108.865000", "150108.868000", "150108.871000", "150108.874000", "150148.821000", "150148.824000", "150148.826000", "150148.829000", "150148.832000", "150148.834000", "150148.837000", "150148.840000", "150148.843000", "150148.845000", "150148.848000", "150148.851000", "150148.853000", "150148.856000", "150148.859000", "150148.861000", "150148.864000", "150148.867000", "150148.870000", "150148.872000", "150228.821000", "150228.824000", "150228.826000", "150228.829000", "150228.832000", "150228.834000", "150228.837000", "150228.840000", "150228.842000", "150228.845000", "150228.848000", "150228.851000", "150228.853000", "150228.856000", "150228.859000", "150228.861000", "150228.864000", "150228.867000", "150228.870000", "150228.872000", "150308.822000", "150308.825000", "150308.828000", "150308.830000", "150308.833000", "150308.836000", "150308.838000", "150308.841000", "150308.844000", "150308.846000", "150308.849000", "150308.852000", "150308.855000", "150308.857000", "150308.860000", "150308.863000", "150308.866000", "150308.868000", "150308.871000", "150308.874000", "150348.821000", "150348.823000", "150348.826000", "150348.829000", "150348.832000", "150348.834000", "150348.837000", "150348.840000", "150348.843000", "150348.845000", "150348.848000", "150348.851000", "150348.854000", "150348.856000", "150348.859000", "150348.862000", "150348.864000", "150348.867000", "150348.870000", "150348.873000", "150428.821000", "150428.824000", "150428.826000", "150428.829000", "150428.832000", "150428.834000", "150428.837000", "150428.840000", "150428.842000", "150428.845000", "150428.848000", "150428.851000", "150428.853000", "150428.856000", "150428.859000", "150428.862000", "150428.864000", "150428.867000", "150428.870000", "150428.872000", "150508.821000", "150508.823000", "150508.826000", "150508.829000", "150508.832000", "150508.834000", "150508.837000", "150508.840000", "150508.842000", "150508.845000", "150508.848000", "150508.851000", "150508.853000", "150508.856000", "150508.859000", "150508.862000", "150508.864000", "150508.867000", "150508.870000", "150508.872000", "150548.822000", "150548.825000", "150548.831000", "150548.833000", "150548.836000", "150548.839000", "150548.842000", "150548.844000", "150548.847000", "150548.850000", "150548.853000", "150548.855000", "150548.858000", "150548.861000", "150548.863000", "150548.866000", "150548.869000", "150548.871000", "150548.874000", "150548.877000", "150628.821000", "150628.824000", "150628.827000", "150628.829000", "150628.832000", "150628.835000", "150628.837000", "150628.840000", "150628.843000", "150628.846000", "150628.849000", "150628.851000", "150628.854000", "150628.857000", "150628.860000", "150628.862000", "150628.865000", "150628.868000", "150628.870000", "150628.873000", "150629.350000"],
      "DataSetTrailingPadding": [
        "\u0000\u0000\u0000\u0000\u0000\u0000\u0000\u0000\u0000\u0000\u0000\u0000\u0000\u0000\u0000\u0000\u0000\u0000\u0000\u0000\u0000\u0000\u0000\u0000\u0000\u0000\u0000\u0000\u0000\u0000\u0000\u0000\u0000\u0000\u0000\u0000\u0000\u0000\u0000\u0000\u0000\u0000\u0000\u0000\u0000\u0000\u0000\u0000\u0000\u0000\u0000\u0000\u0000\u0000\u0000\u0000\u0000\u0000\u0000\u0000\u0000\u0000\u0000\u0000\u0000\u0000\u0000\u0000\u0000\u0000\u0000\u0000\u0000\u0000\u0000\u0000\u0000\u0000\u0000\u0000\u0000\u0000\u0000\u0000\u0000\u0000\u0000\u0000\u0000\u0000\u0000\u0000\u0000\u0000\u0000\u0000\u0000\u0000\u0000\u0000\u0000\u0000\u0000\u0000\u0000\u0000\u0000\u0000\u0000\u0000\u0000\u0000\u0000\u0000\u0000\u0000\u0000\u0000\u0000\u0000\u0000\u0000\u0000\u0000\u0000\u0000\u0000\u0000\u0000\u0000\u0000\u0000\u0000\u0000\u0000\u0000\u0000\u0000\u0000\u0000\u0000\u0000\u0000\u0000\u0000\u0000\u0000\u0000\u0000\u0000\u0000\u0000\u0000\u0000\u0000\u0000\u0000\u0000\u0000\u0000\u0000\u0000\u0000\u0000\u0000\u0000\u0000\u0000\u0000\u0000\u0000\u0000\u0000\u0000\u0000\u0000\u0000\u0000\u0000\u0000\u0000\u0000\u0000\u0000\u0000\u0000\u0000\u0000\u0000\u0000\u0000\u0000\u0000\u0000\u0000\u0000\u0000\u0000\u0000\u0000\u0000\u0000\u0000\u0000\u0000\u0000\u0000\u0000\u0000\u0000\u0000\u0000\u0000\u0000\u0000\u0000\u0000\u0000\u0000\u0000\u0000\u0000\u0000\u0000\u0000\u0000\u0000\u0000\u0000\u0000\u0000\u0000\u0000\u0000\u0000\u0000\u0000\u0000\u0000\u0000\u0000\u0000\u0000\u0000\u0000\u0000\u0000\u0000\u0000\u0000\u0000\u0000\u0000\u0000\u0000\u0000\u0000\u0000\u0000\u0000\u0000\u0000\u0000\u0000\u0000\u0000\u0000\u0000\u0000\u0000\u0000\u0000\u0000\u0000\u0000\u0000\u0000\u0000\u0000\u0000\u0000\u0000\u0000\u0000\u0000\u0000\u0000\u0000\u0000\u0000\u0000\u0000\u0000\u0000\u0000\u0000\u0000\u0000\u0000\u0000\u0000\u0000\u0000\u0000\u0000\u0000\u0000\u0000\u0000\u0000\u0000\u0000\u0000\u0000\u0000\u0000\u0000\u0000\u0000\u0000\u0000\u0000\u0000\u0000\u0000\u0000\u0000\u0000",
        "\u0000\u0000\u0000\u0000\u0000\u0000\u0000\u0000\u0000\u0000\u0000\u0000\u0000\u0000\u0000\u0000\u0000\u0000\u0000\u0000\u0000\u0000\u0000\u0000\u0000\u0000\u0000\u0000\u0000\u0000\u0000\u0000\u0000\u0000\u0000\u0000\u0000\u0000\u0000\u0000\u0000\u0000\u0000\u0000\u0000\u0000\u0000\u0000\u0000\u0000\u0000\u0000\u0000\u0000\u0000\u0000\u0000\u0000\u0000\u0000\u0000\u0000\u0000\u0000\u0000\u0000\u0000\u0000\u0000\u0000\u0000\u0000\u0000\u0000\u0000\u0000\u0000\u0000\u0000\u0000\u0000\u0000\u0000\u0000\u0000\u0000\u0000\u0000\u0000\u0000\u0000\u0000\u0000\u0000\u0000\u0000\u0000\u0000\u0000\u0000\u0000\u0000\u0000\u0000\u0000\u0000\u0000\u0000\u0000\u0000\u0000\u0000\u0000\u0000\u0000\u0000\u0000\u0000\u0000\u0000\u0000\u0000\u0000\u0000\u0000\u0000\u0000\u0000\u0000\u0000\u0000\u0000\u0000\u0000\u0000\u0000\u0000\u0000\u0000\u0000\u0000\u0000\u0000\u0000\u0000\u0000\u0000\u0000\u0000\u0000\u0000\u0000\u0000\u0000\u0000\u0000\u0000\u0000\u0000\u0000\u0000\u0000\u0000\u0000\u0000\u0000\u0000\u0000\u0000\u0000\u0000\u0000\u0000\u0000\u0000\u0000\u0000\u0000\u0000\u0000\u0000\u0000\u0000\u0000\u0000\u0000\u0000\u0000\u0000\u0000\u0000\u0000\u0000\u0000\u0000\u0000\u0000\u0000\u0000\u0000\u0000\u0000\u0000\u0000\u0000\u0000\u0000\u0000\u0000\u0000\u0000\u0000\u0000\u0000\u0000\u0000\u0000\u0000\u0000\u0000\u0000\u0000\u0000\u0000\u0000\u0000\u0000\u0000\u0000\u0000\u0000\u0000\u0000\u0000\u0000\u0000\u0000\u0000\u0000\u0000\u0000\u0000\u0000\u0000\u0000\u0000\u0000\u0000\u0000\u0000\u0000\u0000\u0000\u0000\u0000\u0000\u0000\u0000\u0000\u0000\u0000\u0000\u0000\u0000\u0000\u0000\u0000\u0000\u0000\u0000\u0000\u0000\u0000\u0000\u0000\u0000\u0000\u0000\u0000\u0000\u0000\u0000\u0000\u0000\u0000\u0000\u0000\u0000\u0000\u0000\u0000\u0000\u0000\u0000\u0000\u0000\u0000\u0000\u0000\u0000\u0000\u0000\u0000\u0000\u0000\u0000\u0000\u0000\u0000\u0000\u0000\u0000\u0000\u0000\u0000\u0000\u0000\u0000\u0000\u0000\u0000\u0000\u0000\u0000\u0000\u0000\u0000\u0000\u0000\u0000",
        "\u0000\u0000\u0000\u0000\u0000\u0000\u0000\u0000\u0000\u0000\u0000\u0000\u0000\u0000\u0000\u0000\u0000\u0000\u0000\u0000\u0000\u0000\u0000\u0000\u0000\u0000\u0000\u0000\u0000\u0000\u0000\u0000\u0000\u0000\u0000\u0000\u0000\u0000\u0000\u0000\u0000\u0000\u0000\u0000\u0000\u0000\u0000\u0000\u0000\u0000\u0000\u0000\u0000\u0000\u0000\u0000\u0000\u0000\u0000\u0000\u0000\u0000\u0000\u0000\u0000\u0000\u0000\u0000\u0000\u0000\u0000\u0000\u0000\u0000\u0000\u0000\u0000\u0000\u0000\u0000\u0000\u0000\u0000\u0000\u0000\u0000\u0000\u0000\u0000\u0000\u0000\u0000\u0000\u0000\u0000\u0000\u0000\u0000\u0000\u0000\u0000\u0000\u0000\u0000\u0000\u0000\u0000\u0000\u0000\u0000\u0000\u0000\u0000\u0000\u0000\u0000\u0000\u0000\u0000\u0000\u0000\u0000\u0000\u0000\u0000\u0000\u0000\u0000\u0000\u0000\u0000\u0000\u0000\u0000\u0000\u0000\u0000\u0000\u0000\u0000\u0000\u0000\u0000\u0000\u0000\u0000\u0000\u0000\u0000\u0000\u0000\u0000\u0000\u0000\u0000\u0000\u0000\u0000\u0000\u0000\u0000\u0000\u0000\u0000\u0000\u0000\u0000\u0000\u0000\u0000\u0000\u0000\u0000\u0000\u0000\u0000\u0000\u0000\u0000\u0000\u0000\u0000\u0000\u0000\u0000\u0000\u0000\u0000\u0000\u0000\u0000\u0000\u0000\u0000\u0000\u0000\u0000\u0000\u0000\u0000\u0000\u0000\u0000\u0000\u0000\u0000\u0000\u0000\u0000\u0000\u0000\u0000\u0000\u0000\u0000\u0000\u0000\u0000\u0000\u0000\u0000\u0000\u0000\u0000\u0000\u0000\u0000\u0000\u0000\u0000\u0000\u0000\u0000\u0000\u0000\u0000\u0000\u0000\u0000\u0000\u0000\u0000\u0000\u0000\u0000\u0000\u0000\u0000\u0000\u0000\u0000\u0000\u0000\u0000\u0000\u0000\u0000\u0000\u0000\u0000\u0000\u0000\u0000\u0000\u0000\u0000\u0000\u0000\u0000\u0000\u0000\u0000\u0000\u0000\u0000\u0000\u0000\u0000\u0000\u0000\u0000\u0000\u0000\u0000\u0000\u0000\u0000\u0000\u0000\u0000\u0000\u0000\u0000\u0000\u0000\u0000\u0000\u0000\u0000\u0000\u0000\u0000\u0000\u0000\u0000\u0000\u0000\u0000\u0000\u0000\u0000\u0000\u0000\u0000\u0000\u0000\u0000\u0000\u0000\u0000\u0000\u0000\u0000\u0000\u0000\u0000\u0000\u0000\u0000\u0000",
