{
  "AcquisitionMatrixPE": 70,
  "AcquisitionNumber": 1,
  "AcquisitionTime": "09:24:20.590000",
  "BandwidthPerPixelPhaseEncode": 51.948,
  "BaseResolution": 70,
  "BodyPartExamined": "HEAD",
  "CoilCombinationMethod": "Sum of Squares",
  "ConsistencyInfo": "N4_VE11C_LATEST_20160120",
  "ConversionSoftware": "dcm2niix",
  "ConversionSoftwareVersion": "v1.0.20220720",
  "DerivedVendorReportedEchoSpacing": 0.000550001,
  "DeviceSerialNumber": "66061",
  "DwellTime": 3.3e-06,
  "EchoTime": 0.022,
  "EchoTrainLength": 35,
  "EffectiveEchoSpacing": 0.000275,
  "FlipAngle": 90,
  "HeudiconvVersion": "1.1.1",
  "ImageOrientationPatientDICOM": [0.999005, 0.00941122, 0.0436015, -0.00122055, 0.98289, -0.184188],
  "ImageOrientationText": "Tra>Cor(-10.6)>Sag(2.6)",
  "ImageType": [
    "ORIGINAL",
    "PRIMARY",
    "M",
    "ND",
    "NORM",
    "MOSAIC"
],
  "ImagingFrequency": 123.255,
  "InPlanePhaseEncodingDirectionDICOM": "COL",
  "InstitutionAddress": "Street StreetNo,City/1c4204/,District,KR,ZIP",
  "InstitutionName": "SKKU",
  "InstitutionalDepartmentName": "Department",
  "MRAcquisitionType": "2D",
  "MagneticFieldStrength": 3,
  "Manufacturer": "Siemens",
  "ManufacturersModelName": "Prisma",
  "MatrixCoilMode": "GRAPPA",
  "Modality": "MR",
  "NonlinearGradientCorrection": false,
  "ParallelReductionFactorInPlane": 2,
  "PartialFourier": 1,
  "PatientPosition": "HFS",
  "PercentPhaseFOV": 100,
  "PercentSampling": 100,
  "PhaseEncodingDirection": "j-",
  "PhaseEncodingSteps": 70,
  "PhaseResolution": 1,
  "PixelBandwidth": 2165,
  "ProcedureStepDescription": "Head^PI:Others",
  "ProtocolName": "BOLD_ep2d_3x3x3_feature4",
  "PulseSequenceDetails": "%SiemensSeq%\\ep2d_pace",
  "ReceiveCoilActiveElements": "HC1-7",
  "ReceiveCoilName": "HeadNeck_64",
  "ReconMatrixPE": 70,
  "RefLinesPE": 24,
  "RepetitionTime": 2,
  "SAR": 0.115668,
  "ScanOptions": "FS",
  "ScanningSequence": "EP",
  "SequenceName": "*epfid2d1_70",
  "SequenceVariant": "SK",
  "SeriesDescription": "BOLD_ep2d_3x3x3_feature4",
  "SeriesNumber": 7,
  "ShimSetting": [5038, 3752, 4451, 378, -91, -16, -92, 59],
  "SliceThickness": 3,
  "SliceTiming": [0.99, 0, 1.0375, 0.0475, 1.085, 0.095, 1.1325, 0.1425, 1.1775, 0.1875, 1.225, 0.235, 1.2725, 0.2825, 1.32, 0.33, 1.3675, 0.3775, 1.415, 0.425, 1.4625, 0.4725, 1.5075, 0.5175, 1.555, 0.565, 1.6025, 0.6125, 1.65, 0.66, 1.6975, 0.7075, 1.745, 0.755, 1.7925, 0.8025, 1.8375, 0.8475, 1.885, 0.895, 1.9325, 0.9425],
  "SoftwareVersions": "syngo MR E11",
  "SpacingBetweenSlices": 3,
  "StationName": "AWP66061",
  "TaskName": "feature",
  "TotalReadoutTime": 0.018975,
  "TxRefAmp": 217.767,
  "dcmmeta_affine": [
    [-2.997014045715332, -0.003661645343527198, 0.13376666605472565, 107.55628204345703],
    [-0.02823365479707718, 2.9486708641052246, -0.5518540143966675, -89.15263366699219],
    [0.1308043897151947, 0.5525636672973633, 2.945770502090454, -67.41755676269531],
    [0.0, 0.0, 0.0, 1.0]
],
  "dcmmeta_reorient_transform": [
    [0.0, -1.0, 0.0, 69.0],
    [1.0, 0.0, 0.0, 0.0],
    [0.0, 0.0, -1.0, 41.0],
    [0.0, 0.0, 0.0, 1.0]
],
  "dcmmeta_shape": [70, 70, 42, 221],
  "dcmmeta_slice_dim": 2,
  "dcmmeta_version": 0.6,
  "global": {
    "const": {
      "AcquisitionMatrix": [70, 0, 0, 70],
      "AngioFlag": "N",
      "BitsAllocated": 16,
      "BitsStored": 12,
      "BodyPartExamined": "HEAD",
      "Columns": 490,
      "EchoNumbers": 1,
      "EchoTime": 22.0,
      "EchoTrainLength": 35,
      "FlipAngle": 90.0,
      "HighBit": 11,
      "ImageOrientationPatient": [0.99900467531266, 0.00941121849746, 0.04360146407915, -0.0012205484505, 0.98289029452861, -0.1841878909781],
      "ImagePositionPatient": [-741.39206040124, -716.8295948241, 180.05537374628],
      "ImageType": [
        "ORIGINAL",
        "PRIMARY",
        "M",
        "ND",
        "NORM",
        "MOSAIC"
],
      "ImagedNucleus": "1H",
      "ImagingFrequency": 123.254639,
      "InPlanePhaseEncodingDirection": "COL",
      "MRAcquisitionType": "2D",
      "MagneticFieldStrength": 3.0,
      "Manufacturer": "SIEMENS",
      "ManufacturerModelName": "Prisma",
      "Modality": "MR",
      "NumberOfAverages": 1.0,
      "NumberOfPhaseEncodingSteps": 70,
      "PercentPhaseFieldOfView": 100.0,
      "PercentSampling": 100.0,
      "PerformedProcedureStepStartTime": "085104.011000",
      "PhotometricInterpretation": "MONOCHROME2",
      "PixelBandwidth": 2165.0,
      "PixelRepresentation": 0,
      "PixelSpacing": [3.0, 3.0],
      "ProtocolName": "BOLD_ep2d_3x3x3_feature4",
      "RepetitionTime": 2000.0,
      "Rows": 490,
      "SAR": 0.11566752581171,
      "SamplesPerPixel": 1,
      "ScanOptions": "FS",
      "ScanningSequence": "EP",
      "SequenceName": "*epfid2d1_70",
      "SequenceVariant": "SK",
      "SeriesDescription": "BOLD_ep2d_3x3x3_feature4",
      "SeriesNumber": 7,
      "SeriesTime": "092517.803000",
      "SliceLocation": 77.996678948578,
      "SliceThickness": 3.0,
      "SmallestImagePixelValue": 0,
      "SoftwareVersions": "syngo MR E11",
      "SpacingBetweenSlices": 2.9999999943022,
      "SpecificCharacterSet": "ISO_IR 100",
      "StudyID": "1",
      "StudyTime": "085103.891000",
      "TransmitCoilName": "Body",
      "VariableFlipAngleFlag": "N",
      "WindowCenterWidthExplanation": "Algo1",
      "dBdt": 0.0},
    "slices": {}
  },
  "time": {
    "samples": {
      "AcquisitionNumber": [1, 2, 3, 4, 5, 6, 7, 8, 9, 10, 11, 12, 13, 14, 15, 16, 17, 18, 19, 20, 21, 22, 23, 24, 25, 26, 27, 28, 29, 30, 31, 32, 33, 34, 35, 36, 37, 38, 39, 40, 41, 42, 43, 44, 45, 46, 47, 48, 49, 50, 51, 52, 53, 54, 55, 56, 57, 58, 59, 60, 61, 62, 63, 64, 65, 66, 67, 68, 69, 70, 71, 72, 73, 74, 75, 76, 77, 78, 79, 80, 81, 82, 83, 84, 85, 86, 87, 88, 89, 90, 91, 92, 93, 94, 95, 96, 97, 98, 99, 100, 101, 102, 103, 104, 105, 106, 107, 108, 109, 110, 111, 112, 113, 114, 115, 116, 117, 118, 119, 120, 121, 122, 123, 124, 125, 126, 127, 128, 129, 130, 131, 132, 133, 134, 135, 136, 137, 138, 139, 140, 141, 142, 143, 144, 145, 146, 147, 148, 149, 150, 151, 152, 153, 154, 155, 156, 157, 158, 159, 160, 161, 162, 163, 164, 165, 166, 167, 168, 169, 170, 171, 172, 173, 174, 175, 176, 177, 178, 179, 180, 181, 182, 183, 184, 185, 186, 187, 188, 189, 190, 191, 192, 193, 194, 195, 196, 197, 198, 199, 200, 201, 202, 203, 204, 205, 206, 207, 208, 209, 210, 211, 212, 213, 214, 215, 216, 217, 218, 219, 220, 221],
      "AcquisitionTime": ["092420.590000", "092422.590000", "092424.590000", "092426.590000", "092428.590000", "092430.590000", "092432.590000", "092434.590000", "092436.590000", "092438.590000", "092440.590000", "092442.590000", "092444.590000", "092446.590000", "092448.590000", "092450.590000", "092452.590000", "092454.590000", "092456.590000", "092458.590000", "092500.590000", "092502.590000", "092504.590000", "092506.590000", "092508.590000", "092510.590000", "092512.590000", "092514.590000", "092516.590000", "092518.590000", "092520.590000", "092522.590000", "092524.590000", "092526.590000", "092528.590000", "092530.590000", "092532.590000", "092534.590000", "092536.590000", "092538.590000", "092540.590000", "092542.590000", "092544.590000", "092546.590000", "092548.590000", "092550.590000", "092552.590000", "092554.590000", "092556.590000", "092558.590000", "092600.590000", "092602.590000", "092604.590000", "092606.590000", "092608.590000", "092610.590000", "092612.590000", "092614.590000", "092616.590000", "092618.590000", "092620.590000", "092622.590000", "092624.590000", "092626.590000", "092628.590000", "092630.590000", "092632.590000", "092634.590000", "092636.590000", "092638.590000", "092640.590000", "092642.590000", "092644.590000", "092646.590000", "092648.590000", "092650.590000", "092652.590000", "092654.590000", "092656.590000", "092658.590000", "092700.590000", "092702.590000", "092704.590000", "092706.590000", "092708.590000", "092710.590000", "092712.590000", "092714.590000", "092716.590000", "092718.590000", "092720.590000", "092722.590000", "092724.590000", "092726.590000", "092728.590000", "092730.590000", "092732.590000", "092734.590000", "092736.590000", "092738.590000", "092740.590000", "092742.590000", "092744.590000", "092746.590000", "092748.590000", "092750.590000", "092752.590000", "092754.590000", "092756.590000", "092758.590000", "092800.590000", "092802.590000", "092804.590000", "092806.590000", "092808.590000", "092810.590000", "092812.590000", "092814.590000", "092816.590000", "092818.590000", "092820.590000", "092822.590000", "092824.590000", "092826.590000", "092828.590000", "092830.590000", "092832.590000", "092834.590000", "092836.590000", "092838.590000", "092840.590000", "092842.590000", "092844.590000", "092846.590000", "092848.590000", "092850.590000", "092852.590000", "092854.590000", "092856.590000", "092858.590000", "092900.590000", "092902.590000", "092904.590000", "092906.590000", "092908.590000", "092910.590000", "092912.590000", "092914.590000", "092916.590000", "092918.590000", "092920.590000", "092922.590000", "092924.590000", "092926.590000", "092928.590000", "092930.590000", "092932.590000", "092934.590000", "092936.590000", "092938.590000", "092940.590000", "092942.590000", "092944.590000", "092946.590000", "092948.590000", "092950.590000", "092952.590000", "092954.590000", "092956.590000", "092958.590000", "093000.590000", "093002.590000", "093004.590000", "093006.590000", "093008.590000", "093010.590000", "093012.590000", "093014.590000", "093016.590000", "093018.590000", "093020.590000", "093022.590000", "093024.590000", "093026.590000", "093028.590000", "093030.590000", "093032.590000", "093034.590000", "093036.590000", "093038.590000", "093040.590000", "093042.590000", "093044.590000", "093046.590000", "093048.590000", "093050.590000", "093052.590000", "093054.590000", "093056.590000", "093058.590000", "093100.590000", "093102.590000", "093104.590000", "093106.590000", "093108.590000", "093110.590000", "093112.590000", "093114.590000", "093116.590000", "093118.590000", "093120.590000", "093122.590000", "093124.590000", "093126.590000", "093128.590000", "093130.590000", "093132.590000", "093134.590000", "093136.590000", "093138.590000", "093140.590000"],
      "ContentTime": ["092517.806000", "092517.810000", "092517.812000", "092517.815000", "092517.817000", "092517.820000", "092517.823000", "092517.825000", "092517.828000", "092517.831000", "092517.833000", "092517.836000", "092517.838000", "092517.849000", "092517.852000", "092517.855000", "092517.857000", "092517.870000", "092517.873000", "092517.876000", "092517.878000", "092517.881000", "092517.883000", "092517.886000", "092517.889000", "092517.891000", "092517.894000", "092517.897000", "092557.802000", "092557.805000", "092557.807000", "092557.810000", "092557.813000", "092557.815000", "092557.818000", "092557.820000", "092557.823000", "092557.826000", "092557.828000", "092557.831000", "092557.834000", "092557.841000", "092557.843000", "092557.846000", "092557.848000", "092557.851000", "092557.854000", "092557.856000", "092637.802000", "092637.805000", "092637.807000", "092637.810000", "092637.812000", "092637.815000", "092637.818000", "092637.820000", "092637.823000", "092637.825000", "092637.828000", "092637.831000", "092637.833000", "092637.836000", "092637.844000", "092637.847000", "092637.850000", "092637.852000", "092637.855000", "092637.857000", "092717.800000", "092717.803000", "092717.806000", "092717.809000", "092717.811000", "092717.814000", "092717.817000", "092717.819000", "092717.822000", "092717.824000", "092717.827000", "092717.830000", "092717.838000", "092717.840000", "092717.843000", "092717.846000", "092717.848000", "092717.851000", "092717.854000", "092717.856000", "092757.802000", "092757.804000", "092757.807000", "092757.810000", "092757.812000", "092757.815000", "092757.818000", "092757.820000", "092757.823000", "092757.826000", "092757.828000", "092757.831000", "092757.833000", "092757.836000", "092757.839000", "092757.841000", "092757.844000", "092757.847000", "092757.849000", "092757.852000", "092837.802000", "092837.804000", "092837.807000", "092837.810000", "092837.812000", "092837.815000", "092837.817000", "092837.820000", "092837.823000", "092837.825000", "092837.828000", "092837.831000", "092837.833000", "092837.836000", "092837.838000", "092837.841000", "092837.844000", "092837.846000", "092837.849000", "092837.859000", "092917.801000", "092917.803000", "092917.806000", "092917.809000", "092917.811000", "092917.814000", "092917.817000", "092917.819000", "092917.822000", "092917.825000", "092917.827000", "092917.830000", "092917.833000", "092917.835000", "092917.838000", "092917.840000", "092917.843000", "092917.846000", "092917.848000", "092917.851000", "092957.802000", "092957.804000", "092957.807000", "092957.810000", "092957.812000", "092957.815000", "092957.818000", "092957.820000", "092957.823000", "092957.826000", "092957.828000", "092957.831000", "092957.833000", "092957.836000", "092957.839000", "092957.841000", "092957.844000", "092957.847000", "092957.849000", "092957.852000", "093037.802000", "093037.804000", "093037.807000", "093037.810000", "093037.812000", "093037.815000", "093037.818000", "093037.820000", "093037.823000", "093037.825000", "093037.828000", "093037.831000", "093037.833000", "093037.836000", "093037.839000", "093037.841000", "093037.844000", "093037.846000", "093037.849000", "093037.852000", "093117.802000", "093117.804000", "093117.807000", "093117.810000", "093117.812000", "093117.815000", "093117.818000", "093117.820000", "093117.823000", "093117.826000", "093117.828000", "093117.831000", "093117.834000", "093117.836000", "093117.839000", "093117.841000", "093117.844000", "093117.847000", "093117.849000", "093117.852000", "093137.801000", "093137.804000", "093137.806000", "093137.809000", "093137.812000", "093137.814000", "093137.817000", "093137.820000", "093137.823000", "093137.825000", "093142.207000", "093142.210000", "093142.213000"],
      "InstanceCreationTime": ["092517.806000", "092517.810000", "092517.812000", "092517.815000", "092517.817000", "092517.820000", "092517.823000", "092517.825000", "092517.828000", "092517.831000", "092517.833000", "092517.836000", "092517.838000", "092517.849000", "092517.852000", "092517.855000", "092517.857000", "092517.870000", "092517.873000", "092517.876000", "092517.878000", "092517.881000", "092517.883000", "092517.886000", "092517.889000", "092517.891000", "092517.894000", "092517.897000", "092557.802000", "092557.805000", "092557.807000", "092557.810000", "092557.813000", "092557.815000", "092557.818000", "092557.820000", "092557.823000", "092557.826000", "092557.828000", "092557.831000", "092557.834000", "092557.841000", "092557.843000", "092557.846000", "092557.848000", "092557.851000", "092557.854000", "092557.856000", "092637.802000", "092637.805000", "092637.807000", "092637.810000", "092637.812000", "092637.815000", "092637.818000", "092637.820000", "092637.823000", "092637.825000", "092637.828000", "092637.831000", "092637.833000", "092637.836000", "092637.844000", "092637.847000", "092637.850000", "092637.852000", "092637.855000", "092637.857000", "092717.800000", "092717.803000", "092717.806000", "092717.809000", "092717.811000", "092717.814000", "092717.817000", "092717.819000", "092717.822000", "092717.824000", "092717.827000", "092717.830000", "092717.838000", "092717.840000", "092717.843000", "092717.846000", "092717.848000", "092717.851000", "092717.854000", "092717.856000", "092757.802000", "092757.804000", "092757.807000", "092757.810000", "092757.812000", "092757.815000", "092757.818000", "092757.820000", "092757.823000", "092757.826000", "092757.828000", "092757.831000", "092757.833000", "092757.836000", "092757.839000", "092757.841000", "092757.844000", "092757.847000", "092757.849000", "092757.852000", "092837.802000", "092837.804000", "092837.807000", "092837.810000", "092837.812000", "092837.815000", "092837.817000", "092837.820000", "092837.823000", "092837.825000", "092837.828000", "092837.831000", "092837.833000", "092837.836000", "092837.838000", "092837.841000", "092837.844000", "092837.846000", "092837.849000", "092837.859000", "092917.801000", "092917.803000", "092917.806000", "092917.809000", "092917.811000", "092917.814000", "092917.817000", "092917.819000", "092917.822000", "092917.825000", "092917.827000", "092917.830000", "092917.833000", "092917.835000", "092917.838000", "092917.840000", "092917.843000", "092917.846000", "092917.848000", "092917.851000", "092957.802000", "092957.804000", "092957.807000", "092957.810000", "092957.812000", "092957.815000", "092957.818000", "092957.820000", "092957.823000", "092957.826000", "092957.828000", "092957.831000", "092957.833000", "092957.836000", "092957.839000", "092957.841000", "092957.844000", "092957.847000", "092957.849000", "092957.852000", "093037.802000", "093037.804000", "093037.807000", "093037.810000", "093037.812000", "093037.815000", "093037.818000", "093037.820000", "093037.823000", "093037.825000", "093037.828000", "093037.831000", "093037.833000", "093037.836000", "093037.839000", "093037.841000", "093037.844000", "093037.846000", "093037.849000", "093037.852000", "093117.802000", "093117.804000", "093117.807000", "093117.810000", "093117.812000", "093117.815000", "093117.818000", "093117.820000", "093117.823000", "093117.826000", "093117.828000", "093117.831000", "093117.834000", "093117.836000", "093117.839000", "093117.841000", "093117.844000", "093117.847000", "093117.849000", "093117.852000", "093137.801000", "093137.804000", "093137.806000", "093137.809000", "093137.812000", "093137.814000", "093137.817000", "093137.820000", "093137.823000", "093137.825000", "093142.207000", "093142.210000", "093142.213000"],
      "InstanceNumber": [1, 2, 3, 4, 5, 6, 7, 8, 9, 10, 11, 12, 13, 14, 15, 16, 17, 18, 19, 20, 21, 22, 23, 24, 25, 26, 27, 28, 29, 30, 31, 32, 33, 34, 35, 36, 37, 38, 39, 40, 41, 42, 43, 44, 45, 46, 47, 48, 49, 50, 51, 52, 53, 54, 55, 56, 57, 58, 59, 60, 61, 62, 63, 64, 65, 66, 67, 68, 69, 70, 71, 72, 73, 74, 75, 76, 77, 78, 79, 80, 81, 82, 83, 84, 85, 86, 87, 88, 89, 90, 91, 92, 93, 94, 95, 96, 97, 98, 99, 100, 101, 102, 103, 104, 105, 106, 107, 108, 109, 110, 111, 112, 113, 114, 115, 116, 117, 118, 119, 120, 121, 122, 123, 124, 125, 126, 127, 128, 129, 130, 131, 132, 133, 134, 135, 136, 137, 138, 139, 140, 141, 142, 143, 144, 145, 146, 147, 148, 149, 150, 151, 152, 153, 154, 155, 156, 157, 158, 159, 160, 161, 162, 163, 164, 165, 166, 167, 168, 169, 170, 171, 172, 173, 174, 175, 176, 177, 178, 179, 180, 181, 182, 183, 184, 185, 186, 187, 188, 189, 190, 191, 192, 193, 194, 195, 196, 197, 198, 199, 200, 201, 202, 203, 204, 205, 206, 207, 208, 209, 210, 211, 212, 213, 214, 215, 216, 217, 218, 219, 220, 221],
      "LargestImagePixelValue": [1915, 1829, 2049, 1991, 2473, 1829, 2163, 2116, 2439, 1993, 1856, 1815, 1854, 2153, 2314, 2615, 2229, 2020, 1854, 2242, 2440, 1923, 1897, 2254, 2532, 1902, 1816, 2012, 2514, 1990, 1838, 1845, 2381, 2395, 1786, 1829, 1808, 2401, 2074, 1827, 1872, 1953, 1963, 2021, 1864, 2014, 1873, 2276, 1988, 1823, 1843, 2468, 1937, 1941, 2078, 2044, 1817, 1817, 2000, 2124, 1996, 1865, 1852, 2340, 2010, 1995, 1840, 2135, 1850, 1798, 2307, 1972, 1887, 2028, 2470, 2138, 1810, 1859, 1807, 1810, 2065, 1860, 1818, 1847, 2519, 2027, 1828, 2224, 2556, 2822, 2159, 2136, 1797, 1813, 1935, 2395, 1960, 1826, 2483, 2175, 1995, 1817, 2049, 2056, 1923, 1854, 2289, 1968, 2067, 2585, 1969, 1856, 1802, 1942, 2059, 1797, 1863, 1982, 1849, 2028, 2195, 1992, 1964, 1860, 1861, 1853, 2059, 1992, 1814, 1876, 1980, 2474, 2136, 1871, 2076, 2465, 2129, 1931, 1888, 1840, 1827, 1978, 2186, 1877, 1829, 1922, 2371, 1839, 1872, 2147, 2570, 2236, 1878, 1840, 2087, 2091, 1857, 1907, 2471, 2672, 2241, 1831, 1914, 2336, 1848, 1807, 2036, 2441, 2012, 1896, 1818, 2048, 2297, 1979, 1811, 1951, 2284, 1838, 1800, 2089, 2349, 2020, 1866, 1905, 1830, 2300, 2849, 1959, 2083, 1886, 2301, 2075, 2020, 2100, 1885, 1869, 1904, 1884, 1842, 2218, 1855, 1858, 2220, 2562, 2138, 1856, 1956, 2287, 1845, 1816, 1830, 2426, 1891, 2587, 2141, 2365, 1840, 1886, 1935, 2251, 1875],
      "WindowCenter": [832.0, 832.0, 832.0, 831.0, 832.0, 831.0, 832.0, 831.0, 831.0, 830.0, 830.0, 830.0, 831.0, 831.0, 831.0, 831.0, 831.0, 831.0, 830.0, 830.0, 831.0, 830.0, 830.0, 830.0, 830.0, 830.0, 830.0, 830.0, 830.0, 830.0, 829.0, 829.0, 830.0, 829.0, 829.0, 830.0, 830.0, 830.0, 829.0, 829.0, 829.0, 829.0, 830.0, 830.0, 830.0, 830.0, 830.0, 831.0, 830.0, 830.0, 829.0, 830.0, 829.0, 829.0, 829.0, 828.0, 828.0, 829.0, 831.0, 831.0, 830.0, 829.0, 829.0, 830.0, 829.0, 829.0, 830.0, 830.0, 830.0, 829.0, 831.0, 830.0, 830.0, 830.0, 830.0, 830.0, 829.0, 829.0, 830.0, 830.0, 830.0, 831.0, 831.0, 831.0, 830.0, 829.0, 830.0, 831.0, 830.0, 829.0, 828.0, 828.0, 829.0, 830.0, 831.0, 832.0, 831.0, 831.0, 832.0, 831.0, 830.0, 830.0, 830.0, 830.0, 830.0, 830.0, 831.0, 830.0, 830.0, 830.0, 830.0, 829.0, 829.0, 830.0, 830.0, 830.0, 831.0, 831.0, 830.0, 830.0, 830.0, 830.0, 831.0, 831.0, 830.0, 830.0, 831.0, 831.0, 831.0, 832.0, 832.0, 832.0, 831.0, 830.0, 830.0, 830.0, 829.0, 829.0, 829.0, 830.0, 830.0, 831.0, 831.0, 830.0, 830.0, 830.0, 831.0, 831.0, 831.0, 831.0, 830.0, 830.0, 829.0, 830.0, 830.0, 830.0, 830.0, 830.0, 830.0, 830.0, 829.0, 830.0, 830.0, 831.0, 830.0, 830.0, 831.0, 831.0, 830.0, 829.0, 829.0, 830.0, 830.0, 830.0, 829.0, 829.0, 830.0, 830.0, 830.0, 830.0, 830.0, 830.0, 830.0, 830.0, 830.0, 830.0, 831.0, 830.0, 831.0, 830.0, 830.0, 829.0, 829.0, 829.0, 830.0, 829.0, 829.0, 830.0, 830.0, 831.0, 831.0, 831.0, 831.0, 831.0, 831.0, 830.0, 830.0, 830.0, 830.0, 831.0, 830.0, 831.0, 830.0, 829.0, 828.0, 828.0, 828.0, 829.0, 829.0, 830.0, 830.0],
      "WindowWidth": [1803.0, 1801.0, 1803.0, 1800.0, 1803.0, 1799.0, 1803.0, 1800.0, 1801.0, 1797.0, 1796.0, 1798.0, 1799.0, 1801.0, 1799.0, 1802.0, 1800.0, 1799.0, 1795.0, 1798.0, 1800.0, 1798.0, 1797.0, 1797.0, 1800.0, 1796.0, 1795.0, 1797.0, 1800.0, 1796.0, 1794.0, 1794.0, 1798.0, 1797.0, 1794.0, 1795.0, 1795.0, 1799.0, 1796.0, 1794.0, 1794.0, 1795.0, 1796.0, 1797.0, 1795.0, 1796.0, 1796.0, 1800.0, 1797.0, 1795.0, 1794.0, 1797.0, 1794.0, 1795.0, 1794.0, 1793.0, 1791.0, 1795.0, 1799.0, 1799.0, 1797.0, 1795.0, 1794.0, 1798.0, 1795.0, 1796.0, 1795.0, 1798.0, 1795.0, 1794.0, 1802.0, 1798.0, 1796.0, 1797.0, 1800.0, 1797.0, 1793.0, 1794.0, 1795.0, 1795.0, 1797.0, 1798.0, 1799.0, 1798.0, 1800.0, 1795.0, 1795.0, 1800.0, 1798.0, 1796.0, 1791.0, 1792.0, 1793.0, 1797.0, 1799.0, 1803.0, 1799.0, 1797.0, 1803.0, 1799.0, 1796.0, 1794.0, 1797.0, 1797.0, 1795.0, 1795.0, 1801.0, 1797.0, 1796.0, 1800.0, 1795.0, 1794.0, 1793.0, 1795.0, 1797.0, 1796.0, 1798.0, 1798.0, 1797.0, 1798.0, 1798.0, 1797.0, 1799.0, 1798.0, 1797.0, 1797.0, 1800.0, 1800.0, 1799.0, 1800.0, 1802.0, 1804.0, 1799.0, 1796.0, 1797.0, 1799.0, 1796.0, 1793.0, 1793.0, 1795.0, 1796.0, 1799.0, 1800.0, 1796.0, 1796.0, 1797.0, 1802.0, 1798.0, 1798.0, 1798.0, 1800.0, 1798.0, 1794.0, 1794.0, 1796.0, 1797.0, 1796.0, 1796.0, 1799.0, 1799.0, 1796.0, 1795.0, 1797.0, 1800.0, 1795.0, 1796.0, 1798.0, 1801.0, 1797.0, 1794.0, 1792.0, 1796.0, 1799.0, 1795.0, 1792.0, 1794.0, 1799.0, 1795.0, 1795.0, 1796.0, 1798.0, 1796.0, 1795.0, 1797.0, 1796.0, 1799.0, 1802.0, 1798.0, 1798.0, 1795.0, 1798.0, 1794.0, 1793.0, 1795.0, 1795.0, 1794.0, 1794.0, 1796.0, 1797.0, 1801.0, 1798.0, 1799.0, 1801.0, 1802.0, 1799.0, 1795.0, 1795.0, 1799.0, 1796.0, 1798.0, 1797.0, 1802.0, 1795.0, 1796.0, 1792.0, 1794.0, 1792.0, 1794.0, 1794.0, 1797.0, 1795.0]
    },
    "slices": {}
  }
}