{
  "AcquisitionMatrixPE": 70,
  "AcquisitionNumber": 1,
  "AcquisitionTime": "10:46:1.740000",
  "BandwidthPerPixelPhaseEncode": 51.948,
  "BaseResolution": 70,
  "BodyPartExamined": "HEAD",
  "CoilCombinationMethod": "Sum of Squares",
  "ConsistencyInfo": "N4_VE11C_LATEST_20160120",
  "ConversionSoftware": "dcm2niix",
  "ConversionSoftwareVersion": "v1.0.20220720",
  "DerivedVendorReportedEchoSpacing": 0.000550001,
  "DeviceSerialNumber": "66061",
  "DwellTime": 3.3e-06,
  "EchoTime": 0.022,
  "EchoTrainLength": 35,
  "EffectiveEchoSpacing": 0.000275,
  "FlipAngle": 90,
  "HeudiconvVersion": "1.1.1",
  "ImageOrientationPatientDICOM": [0.999998, 0.00151649, 0.00146153, -0.00122175, 0.982934, -0.183954],
  "ImageOrientationText": "Tra>Cor(-10.6)>Sag(0.1)",
  "ImageType": [
    "ORIGINAL",
    "PRIMARY",
    "M",
    "ND",
    "NORM",
    "MOSAIC"
],
  "ImagingFrequency": 123.254,
  "InPlanePhaseEncodingDirectionDICOM": "COL",
  "InstitutionAddress": "Street StreetNo,City/1c4204/,District,KR,ZIP",
  "InstitutionName": "SKKU",
  "InstitutionalDepartmentName": "Department",
  "MRAcquisitionType": "2D",
  "MagneticFieldStrength": 3,
  "Manufacturer": "Siemens",
  "ManufacturersModelName": "Prisma",
  "MatrixCoilMode": "GRAPPA",
  "Modality": "MR",
  "NonlinearGradientCorrection": false,
  "ParallelReductionFactorInPlane": 2,
  "PartialFourier": 1,
  "PatientPosition": "HFS",
  "PercentPhaseFOV": 100,
  "PercentSampling": 100,
  "PhaseEncodingDirection": "j-",
  "PhaseEncodingSteps": 70,
  "PhaseResolution": 1,
  "PixelBandwidth": 2165,
  "ProcedureStepDescription": "Head^PI:Others",
  "ProtocolName": "BOLD_ep2d_3x3x3_dimension2",
  "PulseSequenceDetails": "%SiemensSeq%\\ep2d_pace",
  "ReceiveCoilActiveElements": "HC1-7",
  "ReceiveCoilName": "HeadNeck_64",
  "ReconMatrixPE": 70,
  "RefLinesPE": 24,
  "RepetitionTime": 2,
  "SAR": 0.12727,
  "ScanOptions": "FS",
  "ScanningSequence": "EP",
  "SequenceName": "*epfid2d1_70",
  "SequenceVariant": "SK",
  "SeriesDescription": "BOLD_ep2d_3x3x3_dimension2",
  "SeriesNumber": 5,
  "ShimSetting": [5047, 3750, 4423, 257, -23, -44, -6, 75],
  "SliceThickness": 3,
  "SliceTiming": [0.99, 0, 1.0375, 0.0475, 1.085, 0.095, 1.13, 0.14, 1.1775, 0.1875, 1.225, 0.235, 1.2725, 0.2825, 1.32, 0.33, 1.3675, 0.3775, 1.415, 0.425, 1.46, 0.47, 1.5075, 0.5175, 1.555, 0.565, 1.6025, 0.6125, 1.65, 0.66, 1.6975, 0.7075, 1.745, 0.755, 1.79, 0.8, 1.8375, 0.8475, 1.885, 0.895, 1.9325, 0.9425],
  "SoftwareVersions": "syngo MR E11",
  "SpacingBetweenSlices": 3,
  "StationName": "AWP66061",
  "TaskName": "dimension",
  "TotalReadoutTime": 0.018975,
  "TxRefAmp": 239.372,
  "dcmmeta_affine": [
    [-2.999993324279785, -0.0036652612034231424, 0.005146656185388565, 106.35585021972656],
    [-0.004549454897642136, 2.9488024711608887, -0.5518540143966675, -88.17882537841797],
    [0.0043845949694514275, 0.5518606305122375, 2.9488015174865723, -60.61039733886719],
    [0.0, 0.0, 0.0, 1.0]
],
  "dcmmeta_reorient_transform": [
    [0.0, -1.0, 0.0, 69.0],
    [1.0, 0.0, 0.0, 0.0],
    [0.0, 0.0, -1.0, 41.0],
    [0.0, 0.0, 0.0, 1.0]
],
  "dcmmeta_shape": [70, 70, 42, 437],
  "dcmmeta_slice_dim": 2,
  "dcmmeta_version": 0.6,
  "global": {
    "const": {
      "AcquisitionMatrix": [70, 0, 0, 70],
      "AngioFlag": "N",
      "BitsAllocated": 16,
      "BitsStored": 12,
      "BodyPartExamined": "HEAD",
      "Columns": 490,
      "EchoNumbers": 1,
      "EchoTime": 22.0,
      "EchoTrainLength": 35,
      "FlipAngle": 90.0,
      "HighBit": 11,
      "ImageOrientationPatient": [0.99999778209676, 0.00151648502008, 0.00146153164525, -0.0012217537537, 0.98293418054735, -0.1839535376922],
      "ImagePositionPatient": [-735.54286008499, -712.86645098406, 213.33880828239],
      "ImageType": [
        "ORIGINAL",
        "PRIMARY",
        "M",
        "ND",
        "NORM",
        "MOSAIC"
],
      "ImagedNucleus": "1H",
      "ImagingFrequency": 123.254467,
      "InPlanePhaseEncodingDirection": "COL",
      "MRAcquisitionType": "2D",
      "MagneticFieldStrength": 3.0,
      "Manufacturer": "SIEMENS",
      "ManufacturerModelName": "Prisma",
      "Modality": "MR",
      "NumberOfAverages": 1.0,
      "NumberOfPhaseEncodingSteps": 70,
      "PercentPhaseFieldOfView": 100.0,
      "PercentSampling": 100.0,
      "PerformedProcedureStepStartTime": "102256.076000",
      "PhotometricInterpretation": "MONOCHROME2",
      "PixelBandwidth": 2165.0,
      "PixelRepresentation": 0,
      "PixelSpacing": [3.0, 3.0],
      "ProtocolName": "BOLD_ep2d_3x3x3_dimension2",
      "RepetitionTime": 2000.0,
      "Rows": 490,
      "SAR": 0.12727011790968,
      "SamplesPerPixel": 1,
      "ScanOptions": "FS",
      "ScanningSequence": "EP",
      "SequenceName": "*epfid2d1_70",
      "SequenceVariant": "SK",
      "SeriesDescription": "BOLD_ep2d_3x3x3_dimension2",
      "SeriesNumber": 5,
      "SeriesTime": "104651.436000",
      "SliceLocation": 79.827057243391,
      "SliceThickness": 3.0,
      "SmallestImagePixelValue": 0,
      "SoftwareVersions": "syngo MR E11",
      "SpacingBetweenSlices": 2.999999902757,
      "SpecificCharacterSet": "ISO_IR 100",
      "StudyID": "1",
      "StudyTime": "102256.012000",
      "TransmitCoilName": "Body",
      "VariableFlipAngleFlag": "N",
      "WindowCenterWidthExplanation": "Algo1",
      "dBdt": 0.0},
    "slices": {}
  },
  "time": {
    "samples": {
      "AcquisitionNumber": [1, 2, 3, 4, 5, 6, 7, 8, 9, 10, 11, 12, 13, 14, 15, 16, 17, 18, 19, 20, 21, 22, 23, 24, 25, 26, 27, 28, 29, 30, 31, 32, 33, 34, 35, 36, 37, 38, 39, 40, 41, 42, 43, 44, 45, 46, 47, 48, 49, 50, 51, 52, 53, 54, 55, 56, 57, 58, 59, 60, 61, 62, 63, 64, 65, 66, 67, 68, 69, 70, 71, 72, 73, 74, 75, 76, 77, 78, 79, 80, 81, 82, 83, 84, 85, 86, 87, 88, 89, 90, 91, 92, 93, 94, 95, 96, 97, 98, 99, 100, 101, 102, 103, 104, 105, 106, 107, 108, 109, 110, 111, 112, 113, 114, 115, 116, 117, 118, 119, 120, 121, 122, 123, 124, 125, 126, 127, 128, 129, 130, 131, 132, 133, 134, 135, 136, 137, 138, 139, 140, 141, 142, 143, 144, 145, 146, 147, 148, 149, 150, 151, 152, 153, 154, 155, 156, 157, 158, 159, 160, 161, 162, 163, 164, 165, 166, 167, 168, 169, 170, 171, 172, 173, 174, 175, 176, 177, 178, 179, 180, 181, 182, 183, 184, 185, 186, 187, 188, 189, 190, 191, 192, 193, 194, 195, 196, 197, 198, 199, 200, 201, 202, 203, 204, 205, 206, 207, 208, 209, 210, 211, 212, 213, 214, 215, 216, 217, 218, 219, 220, 221, 222, 223, 224, 225, 226, 227, 228, 229, 230, 231, 232, 233, 234, 235, 236, 237, 238, 239, 240, 241, 242, 243, 244, 245, 246, 247, 248, 249, 250, 251, 252, 253, 254, 255, 256, 257, 258, 259, 260, 261, 262, 263, 264, 265, 266, 267, 268, 269, 270, 271, 272, 273, 274, 275, 276, 277, 278, 279, 280, 281, 282, 283, 284, 285, 286, 287, 288, 289, 290, 291, 292, 293, 294, 295, 296, 297, 298, 299, 300, 301, 302, 303, 304, 305, 306, 307, 308, 309, 310, 311, 312, 313, 314, 315, 316, 317, 318, 319, 320, 321, 322, 323, 324, 325, 326, 327, 328, 329, 330, 331, 332, 333, 334, 335, 336, 337, 338, 339, 340, 341, 342, 343, 344, 345, 346, 347, 348, 349, 350, 351, 352, 353, 354, 355, 356, 357, 358, 359, 360, 361, 362, 363, 364, 365, 366, 367, 368, 369, 370, 371, 372, 373, 374, 375, 376, 377, 378, 379, 380, 381, 382, 383, 384, 385, 386, 387, 388, 389, 390, 391, 392, 393, 394, 395, 396, 397, 398, 399, 400, 401, 402, 403, 404, 405, 406, 407, 408, 409, 410, 411, 412, 413, 414, 415, 416, 417, 418, 419, 420, 421, 422, 423, 424, 425, 426, 427, 428, 429, 430, 431, 432, 433, 434, 435, 436, 437],
      "AcquisitionTime": ["104601.740000", "104603.740000", "104605.740000", "104607.740000", "104609.740000", "104611.740000", "104613.740000", "104615.740000", "104617.740000", "104619.740000", "104621.740000", "104623.740000", "104625.740000", "104627.740000", "104629.740000", "104631.740000", "104633.740000", "104635.740000", "104637.740000", "104639.740000", "104641.740000", "104643.740000", "104645.740000", "104647.740000", "104649.740000", "104651.740000", "104653.740000", "104655.740000", "104657.740000", "104659.740000", "104701.740000", "104703.740000", "104705.740000", "104707.740000", "104709.740000", "104711.740000", "104713.740000", "104715.740000", "104717.740000", "104719.740000", "104721.740000", "104723.740000", "104725.740000", "104727.740000", "104729.740000", "104731.740000", "104733.740000", "104735.740000", "104737.740000", "104739.740000", "104741.740000", "104743.740000", "104745.740000", "104747.740000", "104749.740000", "104751.740000", "104753.740000", "104755.740000", "104757.740000", "104759.740000", "104801.740000", "104803.740000", "104805.740000", "104807.740000", "104809.740000", "104811.740000", "104813.740000", "104815.740000", "104817.740000", "104819.740000", "104821.740000", "104823.740000", "104825.740000", "104827.740000", "104829.740000", "104831.740000", "104833.740000", "104835.740000", "104837.740000", "104839.740000", "104841.740000", "104843.740000", "104845.740000", "104847.740000", "104849.740000", "104851.740000", "104853.740000", "104855.740000", "104857.740000", "104859.740000", "104901.740000", "104903.740000", "104905.740000", "104907.740000", "104909.740000", "104911.740000", "104913.740000", "104915.740000", "104917.740000", "104919.740000", "104921.740000", "104923.740000", "104925.740000", "104927.740000", "104929.740000", "104931.740000", "104933.740000", "104935.740000", "104937.740000", "104939.740000", "104941.740000", "104943.740000", "104945.740000", "104947.740000", "104949.740000", "104951.740000", "104953.740000", "104955.740000", "104957.740000", "104959.740000", "105001.740000", "105003.740000", "105005.740000", "105007.740000", "105009.740000", "105011.740000", "105013.740000", "105015.740000", "105017.740000", "105019.740000", "105021.740000", "105023.740000", "105025.740000", "105027.740000", "105029.740000", "105031.740000", "105033.740000", "105035.740000", "105037.740000", "105039.740000", "105041.740000", "105043.740000", "105045.740000", "105047.740000", "105049.740000", "105051.740000", "105053.740000", "105055.740000", "105057.740000", "105059.740000", "105101.740000", "105103.740000", "105105.740000", "105107.740000", "105109.740000", "105111.740000", "105113.740000", "105115.740000", "105117.740000", "105119.740000", "105121.740000", "105123.740000", "105125.740000", "105127.740000", "105129.740000", "105131.740000", "105133.740000", "105135.740000", "105137.740000", "105139.740000", "105141.740000", "105143.740000", "105145.740000", "105147.740000", "105149.740000", "105151.740000", "105153.740000", "105155.740000", "105157.740000", "105159.740000", "105201.740000", "105203.740000", "105205.740000", "105207.740000", "105209.740000", "105211.740000", "105213.740000", "105215.740000", "105217.740000", "105219.740000", "105221.740000", "105223.740000", "105225.740000", "105227.740000", "105229.740000", "105231.740000", "105233.740000", "105235.740000", "105237.740000", "105239.740000", "105241.740000", "105243.740000", "105245.740000", "105247.740000", "105249.740000", "105251.740000", "105253.740000", "105255.740000", "105257.740000", "105259.740000", "105301.740000", "105303.740000", "105305.740000", "105307.740000", "105309.740000", "105311.740000", "105313.740000", "105315.740000", "105317.740000", "105319.740000", "105321.740000", "105323.740000", "105325.740000", "105327.740000", "105329.740000", "105331.740000", "105333.740000", "105335.740000", "105337.740000", "105339.740000", "105341.740000", "105343.740000", "105345.740000", "105347.740000", "105349.740000", "105351.740000", "105353.740000", "105355.740000", "105357.740000", "105359.740000", "105401.740000", "105403.740000", "105405.740000", "105407.740000", "105409.740000", "105411.740000", "105413.740000", "105415.740000", "105417.740000", "105419.740000", "105421.740000", "105423.740000", "105425.740000", "105427.740000", "105429.740000", "105431.740000", "105433.740000", "105435.740000", "105437.740000", "105439.740000", "105441.740000", "105443.740000", "105445.740000", "105447.740000", "105449.740000", "105451.740000", "105453.740000", "105455.740000", "105457.740000", "105459.740000", "105501.740000", "105503.740000", "105505.740000", "105507.740000", "105509.740000", "105511.740000", "105513.740000", "105515.740000", "105517.740000", "105519.740000", "105521.740000", "105523.740000", "105525.740000", "105527.740000", "105529.740000", "105531.740000", "105533.740000", "105535.740000", "105537.740000", "105539.740000", "105541.740000", "105543.740000", "105545.740000", "105547.740000", "105549.740000", "105551.740000", "105553.740000", "105555.740000", "105557.740000", "105559.740000", "105601.740000", "105603.740000", "105605.740000", "105607.740000", "105609.740000", "105611.740000", "105613.740000", "105615.740000", "105617.740000", "105619.740000", "105621.740000", "105623.740000", "105625.740000", "105627.740000", "105629.740000", "105631.740000", "105633.740000", "105635.740000", "105637.740000", "105639.740000", "105641.740000", "105643.740000", "105645.740000", "105647.740000", "105649.740000", "105651.740000", "105653.740000", "105655.740000", "105657.740000", "105659.740000", "105701.740000", "105703.740000", "105705.740000", "105707.740000", "105709.740000", "105711.740000", "105713.740000", "105715.740000", "105717.740000", "105719.740000", "105721.740000", "105723.740000", "105725.740000", "105727.740000", "105729.740000", "105731.740000", "105733.740000", "105735.740000", "105737.740000", "105739.740000", "105741.740000", "105743.740000", "105745.740000", "105747.740000", "105749.740000", "105751.740000", "105753.740000", "105755.740000", "105757.740000", "105759.740000", "105801.740000", "105803.740000", "105805.740000", "105807.740000", "105809.740000", "105811.740000", "105813.740000", "105815.740000", "105817.740000", "105819.740000", "105821.740000", "105823.740000", "105825.740000", "105827.740000", "105829.740000", "105831.740000", "105833.740000", "105835.740000", "105837.740000", "105839.740000", "105841.740000", "105843.740000", "105845.740000", "105847.740000", "105849.740000", "105851.740000", "105853.740000", "105855.740000", "105857.740000", "105859.740000", "105901.740000", "105903.740000", "105905.740000", "105907.740000", "105909.740000", "105911.740000", "105913.740000", "105915.740000", "105917.740000", "105919.740000", "105921.740000", "105923.740000", "105925.740000", "105927.740000", "105929.740000", "105931.740000", "105933.740000", "105935.740000", "105937.740000", "105939.740000", "105941.740000", "105943.740000", "105945.740000", "105947.740000", "105949.740000", "105951.740000", "105953.740000", "105955.740000", "105957.740000", "105959.740000", "110001.740000", "110003.740000", "110005.740000", "110007.740000", "110009.740000", "110011.740000", "110013.740000", "110015.740000", "110017.740000", "110019.740000", "110021.740000", "110023.740000", "110025.740000", "110027.740000", "110029.740000", "110031.740000", "110033.740000"],
      "ContentTime": ["104651.439000", "104651.443000", "104651.451000", "104651.454000", "104651.456000", "104651.459000", "104651.462000", "104651.464000", "104651.467000", "104651.469000", "104651.472000", "104651.475000", "104651.477000", "104651.480000", "104651.482000", "104651.485000", "104651.488000", "104651.491000", "104651.493000", "104651.496000", "104651.498000", "104651.501000", "104651.504000", "104651.506000", "104651.509000", "104731.435000", "104731.438000", "104731.440000", "104731.443000", "104731.445000", "104731.448000", "104731.451000", "104731.453000", "104731.456000", "104731.459000", "104731.462000", "104731.464000", "104731.467000", "104731.469000", "104731.472000", "104731.475000", "104731.477000", "104731.480000", "104731.483000", "104731.485000", "104811.436000", "104811.439000", "104811.441000", "104811.444000", "104811.446000", "104811.449000", "104811.452000", "104811.454000", "104811.457000", "104811.460000", "104811.462000", "104811.465000", "104811.468000", "104811.470000", "104811.473000", "104811.475000", "104811.478000", "104811.481000", "104811.483000", "104811.486000", "104851.435000", "104851.438000", "104851.440000", "104851.443000", "104851.446000", "104851.448000", "104851.451000", "104851.454000", "104851.456000", "104851.459000", "104851.462000", "104851.464000", "104851.467000", "104851.469000", "104851.472000", "104851.481000", "104851.484000", "104851.487000", "104851.489000", "104851.492000", "104931.435000", "104931.437000", "104931.440000", "104931.443000", "104931.446000", "104931.448000", "104931.451000", "104931.453000", "104931.456000", "104931.459000", "104931.461000", "104931.464000", "104931.467000", "104931.469000", "104931.472000", "104931.475000", "104931.477000", "104931.480000", "104931.483000", "104931.485000", "105011.436000", "105011.439000", "105011.441000", "105011.444000", "105011.446000", "105011.449000", "105011.452000", "105011.454000", "105011.457000", "105011.460000", "105011.462000", "105011.465000", "105011.468000", "105011.470000", "105011.473000", "105011.476000", "105011.478000", "105011.481000", "105011.483000", "105011.486000", "105051.435000", "105051.438000", "105051.440000", "105051.443000", "105051.446000", "105051.448000", "105051.451000", "105051.453000", "105051.456000", "105051.459000", "105051.461000", "105051.464000", "105051.467000", "105051.469000", "105051.472000", "105051.475000", "105051.478000", "105051.480000", "105051.483000", "105051.485000", "105131.435000", "105131.437000", "105131.440000", "105131.443000", "105131.445000", "105131.448000", "105131.451000", "105131.453000", "105131.456000", "105131.459000", "105131.461000", "105131.464000", "105131.467000", "105131.469000", "105131.472000", "105131.474000", "105131.477000", "105131.480000", "105131.482000", "105131.485000", "105211.436000", "105211.439000", "105211.441000", "105211.444000", "105211.447000", "105211.449000", "105211.452000", "105211.455000", "105211.457000", "105211.460000", "105211.462000", "105211.465000", "105211.468000", "105211.470000", "105211.473000", "105211.476000", "105211.478000", "105211.481000", "105211.484000", "105211.486000", "105251.436000", "105251.438000", "105251.458000", "105251.461000", "105251.464000", "105251.466000", "105251.469000", "105251.471000", "105251.474000", "105251.477000", "105251.479000", "105251.482000", "105251.485000", "105251.487000", "105251.490000", "105251.492000", "105251.495000", "105251.498000", "105251.500000", "105251.503000", "105331.435000", "105331.438000", "105331.440000", "105331.443000", "105331.446000", "105331.448000", "105331.451000", "105331.454000", "105331.456000", "105331.459000", "105331.461000", "105331.464000", "105331.467000", "105331.469000", "105331.472000", "105331.475000", "105331.477000", "105331.480000", "105331.483000", "105331.485000", "105411.435000", "105411.438000", "105411.440000", "105411.443000", "105411.446000", "105411.448000", "105411.451000", "105411.454000", "105411.456000", "105411.459000", "105411.462000", "105411.464000", "105411.467000", "105411.470000", "105411.472000", "105411.475000", "105411.478000", "105411.480000", "105411.483000", "105411.486000", "105451.436000", "105451.439000", "105451.441000", "105451.444000", "105451.447000", "105451.449000", "105451.452000", "105451.455000", "105451.457000", "105451.460000", "105451.463000", "105451.465000", "105451.468000", "105451.471000", "105451.473000", "105451.476000", "105451.479000", "105451.481000", "105451.484000", "105451.487000", "105531.435000", "105531.438000", "105531.440000", "105531.443000", "105531.446000", "105531.448000", "105531.451000", "105531.453000", "105531.456000", "105531.459000", "105531.461000", "105531.464000", "105531.467000", "105531.470000", "105531.472000", "105531.475000", "105531.477000", "105531.480000", "105531.483000", "105531.485000", "105611.435000", "105611.438000", "105611.440000", "105611.443000", "105611.446000", "105611.448000", "105611.451000", "105611.454000", "105611.456000", "105611.459000", "105611.462000", "105611.464000", "105611.467000", "105611.470000", "105611.472000", "105611.475000", "105611.478000", "105611.480000", "105611.483000", "105611.486000", "105651.436000", "105651.439000", "105651.441000", "105651.444000", "105651.447000", "105651.449000", "105651.452000", "105651.455000", "105651.457000", "105651.460000", "105651.463000", "105651.465000", "105651.468000", "105651.470000", "105651.473000", "105651.476000", "105651.478000", "105651.481000", "105651.484000", "105651.486000", "105731.436000", "105731.438000", "105731.441000", "105731.444000", "105731.447000", "105731.449000", "105731.452000", "105731.454000", "105731.457000", "105731.460000", "105731.462000", "105731.465000", "105731.468000", "105731.470000", "105731.473000", "105731.476000", "105731.478000", "105731.481000", "105731.484000", "105731.486000", "105811.435000", "105811.438000", "105811.440000", "105811.443000", "105811.446000", "105811.448000", "105811.451000", "105811.454000", "105811.456000", "105811.459000", "105811.462000", "105811.464000", "105811.467000", "105811.470000", "105811.472000", "105811.475000", "105811.478000", "105811.480000", "105811.483000", "105811.486000", "105851.435000", "105851.438000", "105851.440000", "105851.443000", "105851.446000", "105851.448000", "105851.451000", "105851.454000", "105851.456000", "105851.459000", "105851.462000", "105851.464000", "105851.467000", "105851.470000", "105851.472000", "105851.475000", "105851.478000", "105851.480000", "105851.483000", "105851.485000", "105931.436000", "105931.439000", "105931.441000", "105931.444000", "105931.447000", "105931.449000", "105931.452000", "105931.455000", "105931.457000", "105931.460000", "105931.463000", "105931.465000", "105931.468000", "105931.471000", "105931.473000", "105931.476000", "105931.479000", "105931.481000", "105931.484000", "105931.487000", "110011.435000", "110011.438000", "110011.440000", "110011.455000", "110011.458000", "110011.461000", "110011.463000", "110011.466000", "110011.469000", "110011.471000", "110011.474000", "110011.477000", "110011.479000", "110011.482000", "110011.485000", "110011.487000", "110011.490000", "110011.492000", "110011.495000", "110011.498000", "110034.791000", "110034.794000", "110034.797000", "110034.800000", "110034.802000", "110034.805000", "110034.808000", "110034.810000", "110034.813000", "110034.816000", "110034.818000", "110034.821000"],
      "DataSetTrailingPadding": [
        "\u0000\u0000\u0000\u0000\u0000\u0000\u0000\u0000\u0000\u0000\u0000\u0000\u0000\u0000\u0000\u0000\u0000\u0000\u0000\u0000\u0000\u0000\u0000\u0000\u0000\u0000\u0000\u0000\u0000\u0000\u0000\u0000\u0000\u0000\u0000\u0000\u0000\u0000\u0000\u0000\u0000\u0000\u0000\u0000\u0000\u0000\u0000\u0000\u0000\u0000\u0000\u0000\u0000\u0000\u0000\u0000\u0000\u0000\u0000\u0000\u0000\u0000\u0000\u0000\u0000\u0000\u0000\u0000\u0000\u0000\u0000\u0000\u0000\u0000\u0000\u0000\u0000\u0000\u0000\u0000\u0000\u0000\u0000\u0000\u0000\u0000\u0000\u0000\u0000\u0000\u0000\u0000\u0000\u0000\u0000\u0000\u0000\u0000\u0000\u0000\u0000\u0000\u0000\u0000\u0000\u0000\u0000\u0000\u0000\u0000\u0000\u0000\u0000\u0000\u0000\u0000\u0000\u0000\u0000\u0000\u0000\u0000\u0000\u0000\u0000\u0000\u0000\u0000\u0000\u0000\u0000\u0000\u0000\u0000\u0000\u0000\u0000\u0000\u0000\u0000\u0000\u0000\u0000\u0000\u0000\u0000\u0000\u0000\u0000\u0000\u0000\u0000\u0000\u0000\u0000\u0000\u0000\u0000\u0000\u0000\u0000\u0000\u0000\u0000\u0000\u0000\u0000\u0000\u0000\u0000\u0000\u0000\u0000\u0000\u0000\u0000\u0000\u0000\u0000\u0000\u0000\u0000\u0000\u0000\u0000\u0000\u0000\u0000\u0000\u0000\u0000\u0000\u0000\u0000\u0000\u0000\u0000\u0000\u0000\u0000\u0000\u0000\u0000\u0000\u0000\u0000\u0000\u0000\u0000\u0000\u0000\u0000\u0000\u0000\u0000\u0000\u0000\u0000\u0000\u0000\u0000\u0000\u0000\u0000\u0000\u0000\u0000\u0000\u0000\u0000\u0000\u0000\u0000\u0000\u0000\u0000\u0000\u0000\u0000\u0000\u0000\u0000\u0000\u0000\u0000\u0000\u0000\u0000\u0000\u0000\u0000\u0000\u0000\u0000\u0000\u0000\u0000\u0000\u0000\u0000\u0000\u0000\u0000\u0000\u0000\u0000\u0000\u0000\u0000\u0000\u0000\u0000\u0000\u0000\u0000\u0000",
        "\u0000\u0000\u0000\u0000\u0000\u0000\u0000\u0000\u0000\u0000\u0000\u0000\u0000\u0000\u0000\u0000\u0000\u0000\u0000\u0000\u0000\u0000\u0000\u0000\u0000\u0000\u0000\u0000\u0000\u0000\u0000\u0000\u0000\u0000\u0000\u0000\u0000\u0000\u0000\u0000\u0000\u0000\u0000\u0000\u0000\u0000\u0000\u0000\u0000\u0000\u0000\u0000\u0000\u0000\u0000\u0000\u0000\u0000\u0000\u0000\u0000\u0000\u0000\u0000\u0000\u0000\u0000\u0000\u0000\u0000\u0000\u0000\u0000\u0000\u0000\u0000\u0000\u0000\u0000\u0000\u0000\u0000\u0000\u0000\u0000\u0000\u0000\u0000\u0000\u0000\u0000\u0000\u0000\u0000\u0000\u0000\u0000\u0000\u0000\u0000\u0000\u0000\u0000\u0000\u0000\u0000\u0000\u0000\u0000\u0000\u0000\u0000\u0000\u0000\u0000\u0000\u0000\u0000\u0000\u0000\u0000\u0000\u0000\u0000\u0000\u0000\u0000\u0000\u0000\u0000\u0000\u0000\u0000\u0000\u0000\u0000\u0000\u0000\u0000\u0000\u0000\u0000\u0000\u0000\u0000\u0000\u0000\u0000\u0000\u0000\u0000\u0000\u0000\u0000\u0000\u0000\u0000\u0000\u0000\u0000\u0000\u0000\u0000\u0000\u0000\u0000\u0000\u0000\u0000\u0000\u0000\u0000\u0000\u0000\u0000\u0000\u0000\u0000\u0000\u0000\u0000\u0000\u0000\u0000\u0000\u0000\u0000\u0000\u0000\u0000\u0000\u0000\u0000\u0000\u0000\u0000\u0000\u0000\u0000\u0000\u0000\u0000\u0000\u0000\u0000\u0000\u0000\u0000\u0000\u0000\u0000\u0000\u0000\u0000\u0000\u0000\u0000\u0000\u0000\u0000\u0000\u0000\u0000\u0000\u0000\u0000\u0000\u0000\u0000\u0000\u0000\u0000\u0000\u0000\u0000\u0000\u0000\u0000\u0000\u0000\u0000\u0000\u0000\u0000\u0000\u0000\u0000\u0000\u0000\u0000\u0000\u0000\u0000\u0000\u0000\u0000\u0000\u0000\u0000\u0000\u0000\u0000\u0000\u0000\u0000\u0000\u0000\u0000\u0000\u0000\u0000\u0000\u0000\u0000",
        "\u0000\u0000\u0000\u0000\u0000\u0000\u0000\u0000\u0000\u0000\u0000\u0000\u0000\u0000\u0000\u0000\u0000\u0000\u0000\u0000\u0000\u0000\u0000\u0000\u0000\u0000\u0000\u0000\u0000\u0000\u0000\u0000\u0000\u0000\u0000\u0000\u0000\u0000\u0000\u0000\u0000\u0000\u0000\u0000\u0000\u0000\u0000\u0000\u0000\u0000\u0000\u0000\u0000\u0000\u0000\u0000\u0000\u0000\u0000\u0000\u0000\u0000\u0000\u0000\u0000\u0000\u0000\u0000\u0000\u0000\u0000\u0000\u0000\u0000\u0000\u0000\u0000\u0000\u0000\u0000\u0000\u0000\u0000\u0000\u0000\u0000\u0000\u0000\u0000\u0000\u0000\u0000\u0000\u0000\u0000\u0000\u0000\u0000\u0000\u0000\u0000\u0000\u0000\u0000\u0000\u0000\u0000\u0000\u0000\u0000\u0000\u0000\u0000\u0000\u0000\u0000\u0000\u0000\u0000\u0000\u0000\u0000\u0000\u0000\u0000\u0000\u0000\u0000\u0000\u0000\u0000\u0000\u0000\u0000\u0000\u0000\u0000\u0000\u0000\u0000\u0000\u0000\u0000\u0000\u0000\u0000\u0000\u0000\u0000\u0000\u0000\u0000\u0000\u0000\u0000\u0000\u0000\u0000\u0000\u0000\u0000\u0000\u0000\u0000\u0000\u0000\u0000\u0000\u0000\u0000\u0000\u0000\u0000\u0000\u0000\u0000\u0000\u0000\u0000\u0000\u0000\u0000\u0000\u0000\u0000\u0000\u0000\u0000\u0000\u0000\u0000\u0000\u0000\u0000\u0000\u0000\u0000\u0000\u0000\u0000\u0000\u0000\u0000\u0000\u0000\u0000\u0000\u0000\u0000\u0000\u0000\u0000\u0000\u0000\u0000\u0000\u0000\u0000\u0000\u0000\u0000\u0000\u0000\u0000\u0000\u0000\u0000\u0000\u0000\u0000\u0000\u0000\u0000\u0000\u0000\u0000\u0000\u0000\u0000\u0000\u0000\u0000\u0000\u0000\u0000\u0000\u0000\u0000\u0000\u0000\u0000\u0000\u0000\u0000\u0000\u0000\u0000\u0000\u0000\u0000\u0000\u0000\u0000\u0000\u0000\u0000\u0000\u0000\u0000\u0000\u0000\u0000\u0000\u0000",
        "\u0000\u0000\u0000\u0000\u0000\u0000\u0000\u0000\u0000\u0000\u0000\u0000\u0000\u0000\u0000\u0000\u0000\u0000\u0000\u0000\u0000\u0000\u0000\u0000\u0000\u0000\u0000\u0000\u0000\u0000\u0000\u0000\u0000\u0000\u0000\u0000\u0000\u0000\u0000\u0000\u0000\u0000\u0000\u0000\u0000\u0000\u0000\u0000\u0000\u0000\u0000\u0000\u0000\u0000\u0000\u0000\u0000\u0000\u0000\u0000\u0000\u0000\u0000\u0000\u0000\u0000\u0000\u0000\u0000\u0000\u0000\u0000\u0000\u0000\u0000\u0000\u0000\u0000\u0000\u0000\u0000\u0000\u0000\u0000\u0000\u0000\u0000\u0000\u0000\u0000\u0000\u0000\u0000\u0000\u0000\u0000\u0000\u0000\u0000\u0000\u0000\u0000\u0000\u0000\u0000\u0000\u0000\u0000\u0000\u0000\u0000\u0000\u0000\u0000\u0000\u0000\u0000\u0000\u0000\u0000\u0000\u0000\u0000\u0000\u0000\u0000\u0000\u0000\u0000\u0000\u0000\u0000\u0000\u0000\u0000\u0000\u0000\u0000\u0000\u0000\u0000\u0000\u0000\u0000\u0000\u0000\u0000\u0000\u0000\u0000\u0000\u0000\u0000\u0000\u0000\u0000\u0000\u0000\u0000\u0000\u0000\u0000\u0000\u0000\u0000\u0000\u0000\u0000\u0000\u0000\u0000\u0000\u0000\u0000\u0000\u0000\u0000\u0000\u0000\u0000\u0000\u0000\u0000\u0000\u0000\u0000\u0000\u0000\u0000\u0000\u0000\u0000\u0000\u0000\u0000\u0000\u0000\u0000\u0000\u0000\u0000\u0000\u0000\u0000\u0000\u0000\u0000\u0000\u0000\u0000\u0000\u0000\u0000\u0000\u0000\u0000\u0000\u0000\u0000\u0000\u0000\u0000\u0000\u0000\u0000\u0000\u0000\u0000\u0000\u0000\u0000\u0000\u0000\u0000\u0000\u0000\u0000\u0000\u0000\u0000\u0000\u0000\u0000\u0000\u0000\u0000\u0000\u0000\u0000\u0000\u0000\u0000\u0000\u0000\u0000\u0000\u0000\u0000\u0000\u0000\u0000\u0000\u0000\u0000\u0000\u0000\u0000\u0000\u0000\u0000\u0000\u0000\u0000\u0000",
