{
  "AcquisitionMatrixPE": 70,
  "AcquisitionNumber": 1,
  "AcquisitionTime": "09:30:31.855000",
  "BandwidthPerPixelPhaseEncode": 51.948,
  "BaseResolution": 70,
  "BodyPartExamined": "HEAD",
  "CoilCombinationMethod": "Sum of Squares",
  "ConsistencyInfo": "N4_VE11C_LATEST_20160120",
  "ConversionSoftware": "dcm2niix",
  "ConversionSoftwareVersion": "v1.0.20220720",
  "DerivedVendorReportedEchoSpacing": 0.000550001,
  "DeviceSerialNumber": "66061",
  "DwellTime": 3.3e-06,
  "EchoTime": 0.022,
  "EchoTrainLength": 35,
  "EffectiveEchoSpacing": 0.000275,
  "FlipAngle": 90,
  "HeudiconvVersion": "1.1.1",
  "ImageOrientationPatientDICOM": [0.999623, 0.00625129, 0.0267516, -0.00122123, 0.982915, -0.184053],
  "ImageOrientationText": "Tra>Cor(-10.6)>Sag(1.6)",
  "ImageType": [
    "ORIGINAL",
    "PRIMARY",
    "M",
    "ND",
    "NORM",
    "MOSAIC"
],
  "ImagingFrequency": 123.254,
  "InPlanePhaseEncodingDirectionDICOM": "COL",
  "InstitutionAddress": "Street StreetNo,City/1c4204/,District,KR,ZIP",
  "InstitutionName": "SKKU",
  "InstitutionalDepartmentName": "Department",
  "MRAcquisitionType": "2D",
  "MagneticFieldStrength": 3,
  "Manufacturer": "Siemens",
  "ManufacturersModelName": "Prisma",
  "MatrixCoilMode": "GRAPPA",
  "Modality": "MR",
  "NonlinearGradientCorrection": false,
  "ParallelReductionFactorInPlane": 2,
  "PartialFourier": 1,
  "PatientPosition": "HFS",
  "PercentPhaseFOV": 100,
  "PercentSampling": 100,
  "PhaseEncodingDirection": "j-",
  "PhaseEncodingSteps": 70,
  "PhaseResolution": 1,
  "PixelBandwidth": 2165,
  "ProcedureStepDescription": "Head^PI:Others",
  "ProtocolName": "BOLD_ep2d_3x3x3_response1",
  "PulseSequenceDetails": "%SiemensSeq%\\ep2d_pace",
  "ReceiveCoilActiveElements": "HC1-7",
  "ReceiveCoilName": "HeadNeck_64",
  "ReconMatrixPE": 70,
  "RefLinesPE": 24,
  "RepetitionTime": 2,
  "SAR": 0.129217,
  "ScanOptions": "FS",
  "ScanningSequence": "EP",
  "SequenceName": "*epfid2d1_70",
  "SequenceVariant": "SK",
  "SeriesDescription": "BOLD_ep2d_3x3x3_response1",
  "SeriesNumber": 4,
  "ShimSetting": [5050, 3725, 4479, 282, -11, 9, -40, 92],
  "SliceThickness": 3,
  "SliceTiming": [0.99, 0, 1.0375, 0.0475, 1.085, 0.095, 1.13, 0.14, 1.1775, 0.1875, 1.225, 0.235, 1.2725, 0.2825, 1.32, 0.33, 1.3675, 0.3775, 1.415, 0.425, 1.46, 0.47, 1.5075, 0.5175, 1.555, 0.565, 1.6025, 0.6125, 1.65, 0.66, 1.6975, 0.7075, 1.745, 0.755, 1.79, 0.8, 1.8375, 0.8475, 1.885, 0.895, 1.9325, 0.9425],
  "SoftwareVersions": "syngo MR E11",
  "SpacingBetweenSlices": 3,
  "StationName": "AWP66061",
  "TaskName": "response",
  "TotalReadoutTime": 0.018975,
  "TxRefAmp": 246.062,
  "dcmmeta_affine": [
    [-2.9988677501678467, -0.0036636756267398596, 0.082335464656353, 104.57394409179688],
    [-0.018753882497549057, 2.9487464427948, -0.5518540143966675, -84.66771697998047],
    [0.08025486767292023, 0.5521604418754578, 2.9476563930511475, -78.9190902709961],
    [0.0, 0.0, 0.0, 1.0]
],
  "dcmmeta_reorient_transform": [
    [0.0, -1.0, 0.0, 69.0],
    [1.0, 0.0, 0.0, 0.0],
    [0.0, 0.0, -1.0, 41.0],
    [0.0, 0.0, 0.0, 1.0]
],
  "dcmmeta_shape": [70, 70, 42, 341],
  "dcmmeta_slice_dim": 2,
  "dcmmeta_version": 0.6,
  "global": {
    "const": {
      "AcquisitionMatrix": [70, 0, 0, 70],
      "AngioFlag": "N",
      "BitsAllocated": 16,
      "BitsStored": 12,
      "BodyPartExamined": "HEAD",
      "Columns": 490,
      "EchoNumbers": 1,
      "EchoTime": 22.0,
      "EchoTrainLength": 35,
      "FlipAngle": 90.0,
      "HighBit": 11,
      "ImageOrientationPatient": [0.99962256480398, 0.00625129395918, 0.02675162160614, -0.0012212252222, 0.98291547058808, -0.1840534875724],
      "ImagePositionPatient": [-736.68975119034, -719.3448319787, 179.1340643258],
      "ImageType": [
        "ORIGINAL",
        "PRIMARY",
        "M",
        "ND",
        "NORM",
        "MOSAIC"
],
      "ImagedNucleus": "1H",
      "ImagingFrequency": 123.254489,
      "InPlanePhaseEncodingDirection": "COL",
      "MRAcquisitionType": "2D",
      "MagneticFieldStrength": 3.0,
      "Manufacturer": "SIEMENS",
      "ManufacturerModelName": "Prisma",
      "Modality": "MR",
      "NumberOfAverages": 1.0,
      "NumberOfPhaseEncodingSteps": 70,
      "PercentPhaseFieldOfView": 100.0,
      "PercentSampling": 100.0,
      "PerformedProcedureStepStartTime": "091907.243000",
      "PhotometricInterpretation": "MONOCHROME2",
      "PixelBandwidth": 2165.0,
      "PixelRepresentation": 0,
      "PixelSpacing": [3.0, 3.0],
      "ProtocolName": "BOLD_ep2d_3x3x3_response1",
      "RepetitionTime": 2000.0,
      "Rows": 490,
      "SAR": 0.12921700759431,
      "SamplesPerPixel": 1,
      "ScanOptions": "FS",
      "ScanningSequence": "EP",
      "SequenceName": "*epfid2d1_70",
      "SequenceVariant": "SK",
      "SeriesDescription": "BOLD_ep2d_3x3x3_response1",
      "SeriesNumber": 4,
      "SeriesTime": "093039.771000",
      "SliceLocation": 63.902666212569,
      "SliceThickness": 3.0,
      "SmallestImagePixelValue": 0,
      "SoftwareVersions": "syngo MR E11",
      "SpacingBetweenSlices": 2.9999999543716,
      "SpecificCharacterSet": "ISO_IR 100",
      "StudyID": "3",
      "StudyTime": "091907.169000",
      "TransmitCoilName": "Body",
      "VariableFlipAngleFlag": "N",
      "WindowCenterWidthExplanation": "Algo1",
      "dBdt": 0.0},
    "slices": {}
  },
  "time": {
    "samples": {
      "AcquisitionNumber": [1, 2, 3, 4, 5, 6, 7, 8, 9, 10, 11, 12, 13, 14, 15, 16, 17, 18, 19, 20, 21, 22, 23, 24, 25, 26, 27, 28, 29, 30, 31, 32, 33, 34, 35, 36, 37, 38, 39, 40, 41, 42, 43, 44, 45, 46, 47, 48, 49, 50, 51, 52, 53, 54, 55, 56, 57, 58, 59, 60, 61, 62, 63, 64, 65, 66, 67, 68, 69, 70, 71, 72, 73, 74, 75, 76, 77, 78, 79, 80, 81, 82, 83, 84, 85, 86, 87, 88, 89, 90, 91, 92, 93, 94, 95, 96, 97, 98, 99, 100, 101, 102, 103, 104, 105, 106, 107, 108, 109, 110, 111, 112, 113, 114, 115, 116, 117, 118, 119, 120, 121, 122, 123, 124, 125, 126, 127, 128, 129, 130, 131, 132, 133, 134, 135, 136, 137, 138, 139, 140, 141, 142, 143, 144, 145, 146, 147, 148, 149, 150, 151, 152, 153, 154, 155, 156, 157, 158, 159, 160, 161, 162, 163, 164, 165, 166, 167, 168, 169, 170, 171, 172, 173, 174, 175, 176, 177, 178, 179, 180, 181, 182, 183, 184, 185, 186, 187, 188, 189, 190, 191, 192, 193, 194, 195, 196, 197, 198, 199, 200, 201, 202, 203, 204, 205, 206, 207, 208, 209, 210, 211, 212, 213, 214, 215, 216, 217, 218, 219, 220, 221, 222, 223, 224, 225, 226, 227, 228, 229, 230, 231, 232, 233, 234, 235, 236, 237, 238, 239, 240, 241, 242, 243, 244, 245, 246, 247, 248, 249, 250, 251, 252, 253, 254, 255, 256, 257, 258, 259, 260, 261, 262, 263, 264, 265, 266, 267, 268, 269, 270, 271, 272, 273, 274, 275, 276, 277, 278, 279, 280, 281, 282, 283, 284, 285, 286, 287, 288, 289, 290, 291, 292, 293, 294, 295, 296, 297, 298, 299, 300, 301, 302, 303, 304, 305, 306, 307, 308, 309, 310, 311, 312, 313, 314, 315, 316, 317, 318, 319, 320, 321, 322, 323, 324, 325, 326, 327, 328, 329, 330, 331, 332, 333, 334, 335, 336, 337, 338, 339, 340, 341],
      "AcquisitionTime": ["093031.855000", "093033.855000", "093035.855000", "093037.855000", "093039.855000", "093041.855000", "093043.855000", "093045.855000", "093047.855000", "093049.855000", "093051.855000", "093053.855000", "093055.855000", "093057.855000", "093059.855000", "093101.855000", "093103.855000", "093105.855000", "093107.855000", "093109.855000", "093111.855000", "093113.855000", "093115.855000", "093117.855000", "093119.855000", "093121.855000", "093123.855000", "093125.855000", "093127.855000", "093129.855000", "093131.855000", "093133.855000", "093135.855000", "093137.855000", "093139.855000", "093141.855000", "093143.855000", "093145.855000", "093147.855000", "093149.855000", "093151.855000", "093153.855000", "093155.855000", "093157.855000", "093159.855000", "093201.855000", "093203.855000", "093205.855000", "093207.855000", "093209.855000", "093211.855000", "093213.855000", "093215.855000", "093217.855000", "093219.855000", "093221.855000", "093223.855000", "093225.855000", "093227.855000", "093229.855000", "093231.855000", "093233.855000", "093235.855000", "093237.855000", "093239.855000", "093241.855000", "093243.855000", "093245.855000", "093247.855000", "093249.855000", "093251.855000", "093253.855000", "093255.855000", "093257.855000", "093259.855000", "093301.855000", "093303.855000", "093305.855000", "093307.855000", "093309.855000", "093311.855000", "093313.855000", "093315.855000", "093317.855000", "093319.855000", "093321.855000", "093323.855000", "093325.855000", "093327.855000", "093329.855000", "093331.855000", "093333.855000", "093335.855000", "093337.855000", "093339.855000", "093341.855000", "093343.855000", "093345.855000", "093347.855000", "093349.855000", "093351.855000", "093353.855000", "093355.855000", "093357.855000", "093359.855000", "093401.855000", "093403.855000", "093405.855000", "093407.855000", "093409.855000", "093411.855000", "093413.855000", "093415.855000", "093417.855000", "093419.855000", "093421.855000", "093423.855000", "093425.855000", "093427.855000", "093429.855000", "093431.855000", "093433.855000", "093435.855000", "093437.855000", "093439.855000", "093441.855000", "093443.855000", "093445.855000", "093447.855000", "093449.855000", "093451.855000", "093453.855000", "093455.855000", "093457.855000", "093459.855000", "093501.855000", "093503.855000", "093505.855000", "093507.855000", "093509.855000", "093511.855000", "093513.855000", "093515.855000", "093517.855000", "093519.855000", "093521.855000", "093523.855000", "093525.855000", "093527.855000", "093529.855000", "093531.855000", "093533.855000", "093535.855000", "093537.855000", "093539.855000", "093541.855000", "093543.855000", "093545.855000", "093547.855000", "093549.855000", "093551.855000", "093553.855000", "093555.855000", "093557.855000", "093559.855000", "093601.855000", "093603.855000", "093605.855000", "093607.855000", "093609.855000", "093611.855000", "093613.855000", "093615.855000", "093617.855000", "093619.855000", "093621.855000", "093623.855000", "093625.855000", "093627.855000", "093629.855000", "093631.855000", "093633.855000", "093635.855000", "093637.855000", "093639.855000", "093641.855000", "093643.855000", "093645.855000", "093647.855000", "093649.855000", "093651.855000", "093653.855000", "093655.855000", "093657.855000", "093659.855000", "093701.855000", "093703.855000", "093705.855000", "093707.855000", "093709.855000", "093711.855000", "093713.855000", "093715.855000", "093717.855000", "093719.855000", "093721.855000", "093723.855000", "093725.855000", "093727.855000", "093729.855000", "093731.855000", "093733.855000", "093735.855000", "093737.855000", "093739.855000", "093741.855000", "093743.855000", "093745.855000", "093747.855000", "093749.855000", "093751.855000", "093753.855000", "093755.855000", "093757.855000", "093759.855000", "093801.855000", "093803.855000", "093805.855000", "093807.855000", "093809.855000", "093811.855000", "093813.855000", "093815.855000", "093817.855000", "093819.855000", "093821.855000", "093823.855000", "093825.855000", "093827.855000", "093829.855000", "093831.855000", "093833.855000", "093835.855000", "093837.855000", "093839.855000", "093841.855000", "093843.855000", "093845.855000", "093847.855000", "093849.855000", "093851.855000", "093853.855000", "093855.855000", "093857.855000", "093859.855000", "093901.855000", "093903.855000", "093905.855000", "093907.855000", "093909.855000", "093911.855000", "093913.855000", "093915.855000", "093917.855000", "093919.855000", "093921.855000", "093923.855000", "093925.855000", "093927.855000", "093929.855000", "093931.855000", "093933.855000", "093935.855000", "093937.855000", "093939.855000", "093941.855000", "093943.855000", "093945.855000", "093947.855000", "093949.855000", "093951.855000", "093953.855000", "093955.855000", "093957.855000", "093959.855000", "094001.855000", "094003.855000", "094005.855000", "094007.855000", "094009.855000", "094011.855000", "094013.855000", "094015.855000", "094017.855000", "094019.855000", "094021.855000", "094023.855000", "094025.855000", "094027.855000", "094029.855000", "094031.855000", "094033.855000", "094035.855000", "094037.855000", "094039.855000", "094041.855000", "094043.855000", "094045.855000", "094047.855000", "094049.855000", "094051.855000", "094053.855000", "094055.855000", "094057.855000", "094059.855000", "094101.855000", "094103.855000", "094105.855000", "094107.855000", "094109.855000", "094111.855000", "094113.855000", "094115.855000", "094117.855000", "094119.855000", "094121.855000", "094123.855000", "094125.855000", "094127.855000", "094129.855000", "094131.855000", "094133.855000", "094135.855000", "094137.855000", "094139.855000", "094141.855000", "094143.855000", "094145.855000", "094147.855000", "094149.855000", "094151.855000"],
      "ContentTime": ["093039.775000", "093119.771000", "093119.775000", "093119.787000", "093119.794000", "093119.800000", "093119.803000", "093119.807000", "093119.809000", "093119.812000", "093119.815000", "093119.819000", "093119.822000", "093119.825000", "093119.828000", "093119.831000", "093119.834000", "093119.837000", "093119.840000", "093119.843000", "093119.846000", "093159.768000", "093159.771000", "093159.774000", "093159.776000", "093159.779000", "093159.782000", "093159.784000", "093159.787000", "093159.790000", "093159.793000", "093159.795000", "093159.798000", "093159.801000", "093159.804000", "093159.806000", "093159.809000", "093159.812000", "093159.814000", "093159.817000", "093159.820000", "093239.768000", "093239.771000", "093239.774000", "093239.776000", "093239.779000", "093239.782000", "093239.784000", "093239.787000", "093239.790000", "093239.793000", "093239.796000", "093239.798000", "093239.801000", "093239.804000", "093239.806000", "093239.809000", "093239.825000", "093239.828000", "093239.830000", "093239.833000", "093319.769000", "093319.772000", "093319.774000", "093319.777000", "093319.780000", "093319.783000", "093319.785000", "093319.788000", "093319.791000", "093319.793000", "093319.796000", "093319.799000", "093319.802000", "093319.804000", "093319.807000", "093319.810000", "093319.813000", "093319.815000", "093319.818000", "093319.821000", "093359.768000", "093359.771000", "093359.774000", "093359.777000", "093359.780000", "093359.783000", "093359.786000", "093359.789000", "093359.792000", "093359.795000", "093359.798000", "093359.801000", "093359.804000", "093359.807000", "093359.810000", "093359.813000", "093359.816000", "093359.819000", "093359.822000", "093359.825000", "093439.768000", "093439.788000", "093439.791000", "093439.793000", "093439.796000", "093439.799000", "093439.802000", "093439.804000", "093439.807000", "093439.810000", "093439.812000", "093439.815000", "093439.818000", "093439.821000", "093439.823000", "093439.826000", "093439.829000", "093439.832000", "093439.841000", "093439.843000", "093519.768000", "093519.772000", "093519.775000", "093519.777000", "093519.816000", "093519.819000", "093519.822000", "093519.824000", "093519.827000", "093519.830000", "093519.832000", "093519.835000", "093519.838000", "093519.840000", "093519.843000", "093519.846000", "093519.849000", "093519.851000", "093519.854000", "093519.857000", "093559.769000", "093559.772000", "093559.775000", "093559.777000", "093559.780000", "093559.783000", "093559.785000", "093559.788000", "093559.791000", "093559.794000", "093559.796000", "093559.799000", "093559.802000", "093559.805000", "093559.807000", "093559.810000", "093559.813000", "093559.816000", "093559.818000", "093559.821000", "093639.768000", "093639.771000", "093639.774000", "093639.776000", "093639.779000", "093639.782000", "093639.785000", "093639.787000", "093639.790000", "093639.793000", "093639.796000", "093639.798000", "093639.801000", "093639.804000", "093639.807000", "093639.809000", "093639.812000", "093639.815000", "093639.817000", "093639.820000", "093719.768000", "093719.771000", "093719.774000", "093719.776000", "093719.779000", "093719.782000", "093719.785000", "093719.787000", "093719.790000", "093719.793000", "093719.796000", "093719.799000", "093719.801000", "093719.804000", "093719.807000", "093719.810000", "093719.812000", "093719.815000", "093719.818000", "093719.820000", "093759.769000", "093759.772000", "093759.775000", "093759.778000", "093759.781000", "093759.783000", "093759.786000", "093759.789000", "093759.792000", "093759.794000", "093759.797000", "093759.800000", "093759.803000", "093759.805000", "093759.808000", "093759.811000", "093759.814000", "093759.816000", "093759.819000", "093759.822000", "093839.768000", "093839.781000", "093839.784000", "093839.787000", "093839.789000", "093839.792000", "093839.795000", "093839.798000", "093839.800000", "093839.803000", "093839.806000", "093839.809000", "093839.811000", "093839.814000", "093839.817000", "093839.820000", "093839.822000", "093839.825000", "093839.828000", "093839.831000", "093919.768000", "093919.771000", "093919.774000", "093919.777000", "093919.779000", "093919.782000", "093919.785000", "093919.788000", "093919.790000", "093919.793000", "093919.796000", "093919.799000", "093919.802000", "093919.805000", "093919.807000", "093919.810000", "093919.813000", "093919.816000", "093919.818000", "093919.821000", "093959.769000", "093959.772000", "093959.775000", "093959.778000", "093959.780000", "093959.783000", "093959.786000", "093959.789000", "093959.791000", "093959.794000", "093959.797000", "093959.800000", "093959.802000", "093959.805000", "093959.808000", "093959.811000", "093959.813000", "093959.816000", "093959.819000", "093959.822000", "094019.769000", "094019.772000", "094019.775000", "094019.777000", "094019.780000", "094019.783000", "094019.786000", "094019.788000", "094019.791000", "094019.794000", "094059.768000", "094059.771000", "094059.774000", "094059.776000", "094059.779000", "094059.782000", "094059.785000", "094059.787000", "094059.790000", "094059.793000", "094059.796000", "094059.798000", "094059.801000", "094059.804000", "094059.807000", "094059.818000", "094059.820000", "094059.823000", "094059.826000", "094059.829000", "094139.768000", "094139.872000", "094139.874000", "094139.877000", "094139.880000", "094139.883000", "094139.886000", "094139.888000", "094139.891000", "094139.894000", "094139.896000", "094139.899000", "094139.902000", "094139.905000", "094139.908000", "094139.910000", "094139.913000", "094139.916000", "094139.919000", "094139.921000", "094159.027000", "094159.030000", "094159.033000", "094159.036000", "094159.039000", "094159.042000", "094159.044000", "094159.047000", "094159.050000", "094159.053000"],
      "DataSetTrailingPadding": [
        "\u0000\u0000\u0000\u0000\u0000\u0000\u0000\u0000\u0000\u0000\u0000\u0000\u0000\u0000\u0000\u0000\u0000\u0000\u0000\u0000\u0000\u0000\u0000\u0000\u0000\u0000\u0000\u0000\u0000\u0000\u0000\u0000\u0000\u0000\u0000\u0000\u0000\u0000\u0000\u0000\u0000\u0000\u0000\u0000\u0000\u0000\u0000\u0000\u0000\u0000\u0000\u0000\u0000\u0000\u0000\u0000\u0000\u0000\u0000\u0000\u0000\u0000\u0000\u0000\u0000\u0000\u0000\u0000\u0000\u0000\u0000\u0000\u0000\u0000\u0000\u0000\u0000\u0000\u0000\u0000\u0000\u0000\u0000\u0000\u0000\u0000\u0000\u0000\u0000\u0000\u0000\u0000\u0000\u0000\u0000\u0000\u0000\u0000\u0000\u0000\u0000\u0000\u0000\u0000\u0000\u0000\u0000\u0000\u0000\u0000\u0000\u0000\u0000\u0000",
        "\u0000\u0000\u0000\u0000\u0000\u0000\u0000\u0000\u0000\u0000\u0000\u0000\u0000\u0000\u0000\u0000\u0000\u0000\u0000\u0000\u0000\u0000\u0000\u0000\u0000\u0000\u0000\u0000\u0000\u0000\u0000\u0000\u0000\u0000\u0000\u0000\u0000\u0000\u0000\u0000\u0000\u0000\u0000\u0000\u0000\u0000\u0000\u0000\u0000\u0000\u0000\u0000\u0000\u0000\u0000\u0000\u0000\u0000\u0000\u0000\u0000\u0000\u0000\u0000\u0000\u0000\u0000\u0000\u0000\u0000\u0000\u0000\u0000\u0000\u0000\u0000\u0000\u0000\u0000\u0000\u0000\u0000\u0000\u0000\u0000\u0000\u0000\u0000\u0000\u0000\u0000\u0000\u0000\u0000\u0000\u0000\u0000\u0000\u0000\u0000\u0000\u0000\u0000\u0000\u0000\u0000\u0000\u0000",
        "\u0000\u0000\u0000\u0000\u0000\u0000\u0000\u0000\u0000\u0000\u0000\u0000\u0000\u0000\u0000\u0000\u0000\u0000\u0000\u0000\u0000\u0000\u0000\u0000\u0000\u0000\u0000\u0000\u0000\u0000\u0000\u0000\u0000\u0000\u0000\u0000\u0000\u0000\u0000\u0000\u0000\u0000\u0000\u0000\u0000\u0000\u0000\u0000\u0000\u0000\u0000\u0000\u0000\u0000\u0000\u0000\u0000\u0000\u0000\u0000\u0000\u0000\u0000\u0000\u0000\u0000\u0000\u0000\u0000\u0000\u0000\u0000\u0000\u0000\u0000\u0000\u0000\u0000\u0000\u0000\u0000\u0000\u0000\u0000\u0000\u0000\u0000\u0000\u0000\u0000\u0000\u0000\u0000\u0000\u0000\u0000\u0000\u0000\u0000\u0000\u0000\u0000\u0000\u0000\u0000\u0000\u0000\u0000",
        "\u0000\u0000\u0000\u0000\u0000\u0000\u0000\u0000\u0000\u0000\u0000\u0000\u0000\u0000\u0000\u0000\u0000\u0000\u0000\u0000\u0000\u0000\u0000\u0000\u0000\u0000\u0000\u0000\u0000\u0000\u0000\u0000\u0000\u0000\u0000\u0000\u0000\u0000\u0000\u0000\u0000\u0000\u0000\u0000\u0000\u0000\u0000\u0000\u0000\u0000\u0000\u0000\u0000\u0000\u0000\u0000\u0000\u0000\u0000\u0000\u0000\u0000\u0000\u0000\u0000\u0000\u0000\u0000\u0000\u0000\u0000\u0000\u0000\u0000\u0000\u0000\u0000\u0000\u0000\u0000\u0000\u0000\u0000\u0000\u0000\u0000\u0000\u0000\u0000\u0000\u0000\u0000\u0000\u0000\u0000\u0000\u0000\u0000\u0000\u0000\u0000\u0000\u0000\u0000\u0000\u0000\u0000\u0000",
        "\u0000\u0000\u0000\u0000\u0000\u0000\u0000\u0000\u0000\u0000\u0000\u0000\u0000\u0000\u0000\u0000\u0000\u0000\u0000\u0000\u0000\u0000\u0000\u0000\u0000\u0000\u0000\u0000\u0000\u0000\u0000\u0000\u0000\u0000\u0000\u0000\u0000\u0000\u0000\u0000\u0000\u0000\u0000\u0000\u0000\u0000\u0000\u0000\u0000\u0000\u0000\u0000\u0000\u0000\u0000\u0000\u0000\u0000\u0000\u0000\u0000\u0000\u0000\u0000\u0000\u0000\u0000\u0000\u0000\u0000\u0000\u0000\u0000\u0000\u0000\u0000\u0000\u0000\u0000\u0000\u0000\u0000\u0000\u0000\u0000\u0000\u0000\u0000\u0000\u0000\u0000\u0000\u0000\u0000\u0000\u0000\u0000\u0000\u0000\u0000\u0000\u0000\u0000\u0000\u0000\u0000",
        "\u0000\u0000\u0000\u0000\u0000\u0000\u0000\u0000\u0000\u0000\u0000\u0000\u0000\u0000\u0000\u0000\u0000\u0000\u0000\u0000\u0000\u0000\u0000\u0000\u0000\u0000\u0000\u0000\u0000\u0000\u0000\u0000\u0000\u0000\u0000\u0000\u0000\u0000\u0000\u0000\u0000\u0000\u0000\u0000\u0000\u0000\u0000\u0000\u0000\u0000\u0000\u0000\u0000\u0000\u0000\u0000\u0000\u0000\u0000\u0000\u0000\u0000\u0000\u0000\u0000\u0000\u0000\u0000\u0000\u0000\u0000\u0000\u0000\u0000\u0000\u0000\u0000\u0000\u0000\u0000\u0000\u0000\u0000\u0000\u0000\u0000\u0000\u0000\u0000\u0000\u0000\u0000\u0000\u0000\u0000\u0000\u0000\u0000\u0000\u0000\u0000\u0000\u0000\u0000\u0000\u0000",
        "\u0000\u0000\u0000\u0000\u0000\u0000\u0000\u0000\u0000\u0000\u0000\u0000\u0000\u0000\u0000\u0000\u0000\u0000\u0000\u0000\u0000\u0000\u0000\u0000\u0000\u0000\u0000\u0000\u0000\u0000\u0000\u0000\u0000\u0000\u0000\u0000\u0000\u0000\u0000\u0000\u0000\u0000\u0000\u0000\u0000\u0000\u0000\u0000\u0000\u0000\u0000\u0000\u0000\u0000\u0000\u0000\u0000\u0000\u0000\u0000\u0000\u0000\u0000\u0000\u0000\u0000\u0000\u0000\u0000\u0000\u0000\u0000\u0000\u0000\u0000\u0000\u0000\u0000\u0000\u0000\u0000\u0000\u0000\u0000\u0000\u0000\u0000\u0000\u0000\u0000\u0000\u0000\u0000\u0000\u0000\u0000\u0000\u0000\u0000\u0000\u0000\u0000\u0000\u0000\u0000\u0000",
        "\u0000\u0000\u0000\u0000\u0000\u0000\u0000\u0000\u0000\u0000\u0000\u0000\u0000\u0000\u0000\u0000\u0000\u0000\u0000\u0000\u0000\u0000\u0000\u0000\u0000\u0000\u0000\u0000\u0000\u0000\u0000\u0000\u0000\u0000\u0000\u0000\u0000\u0000\u0000\u0000\u0000\u0000\u0000\u0000\u0000\u0000\u0000\u0000\u0000\u0000\u0000\u0000\u0000\u0000\u0000\u0000\u0000\u0000\u0000\u0000\u0000\u0000\u0000\u0000\u0000\u0000\u0000\u0000\u0000\u0000\u0000\u0000\u0000\u0000\u0000\u0000\u0000\u0000\u0000\u0000\u0000\u0000\u0000\u0000\u0000\u0000\u0000\u0000\u0000\u0000\u0000\u0000\u0000\u0000\u0000\u0000\u0000\u0000\u0000\u0000\u0000\u0000\u0000\u0000\u0000\u0000",
        "\u0000\u0000\u0000\u0000\u0000\u0000\u0000\u0000\u0000\u0000\u0000\u0000\u0000\u0000\u0000\u0000\u0000\u0000\u0000\u0000\u0000\u0000\u0000\u0000\u0000\u0000\u0000\u0000\u0000\u0000\u0000\u0000\u0000\u0000\u0000\u0000\u0000\u0000\u0000\u0000\u0000\u0000\u0000\u0000\u0000\u0000\u0000\u0000\u0000\u0000\u0000\u0000\u0000\u0000\u0000\u0000\u0000\u0000\u0000\u0000\u0000\u0000\u0000\u0000\u0000\u0000\u0000\u0000\u0000\u0000\u0000\u0000\u0000\u0000\u0000\u0000\u0000\u0000\u0000\u0000\u0000\u0000\u0000\u0000\u0000\u0000\u0000\u0000\u0000\u0000\u0000\u0000\u0000\u0000\u0000\u0000\u0000\u0000\u0000\u0000\u0000\u0000\u0000\u0000\u0000\u0000",
        "\u0000\u0000\u0000\u0000\u0000\u0000\u0000\u0000\u0000\u0000\u0000\u0000\u0000\u0000\u0000\u0000\u0000\u0000\u0000\u0000\u0000\u0000\u0000\u0000\u0000\u0000\u0000\u0000\u0000\u0000\u0000\u0000\u0000\u0000\u0000\u0000\u0000\u0000\u0000\u0000\u0000\u0000\u0000\u0000\u0000\u0000\u0000\u0000\u0000\u0000\u0000\u0000\u0000\u0000\u0000\u0000\u0000\u0000\u0000\u0000\u0000\u0000\u0000\u0000\u0000\u0000\u0000\u0000\u0000\u0000\u0000\u0000\u0000\u0000\u0000\u0000\u0000\u0000\u0000\u0000\u0000\u0000\u0000\u0000\u0000\u0000\u0000\u0000\u0000\u0000\u0000\u0000\u0000\u0000\u0000\u0000\u0000\u0000\u0000\u0000\u0000\u0000",
        "\u0000\u0000\u0000\u0000\u0000\u0000\u0000\u0000\u0000\u0000\u0000\u0000\u0000\u0000\u0000\u0000\u0000\u0000\u0000\u0000\u0000\u0000\u0000\u0000\u0000\u0000\u0000\u0000\u0000\u0000\u0000\u0000\u0000\u0000\u0000\u0000\u0000\u0000\u0000\u0000\u0000\u0000\u0000\u0000\u0000\u0000\u0000\u0000\u0000\u0000\u0000\u0000\u0000\u0000\u0000\u0000\u0000\u0000\u0000\u0000\u0000\u0000\u0000\u0000\u0000\u0000\u0000\u0000\u0000\u0000\u0000\u0000\u0000\u0000\u0000\u0000\u0000\u0000\u0000\u0000\u0000\u0000\u0000\u0000\u0000\u0000\u0000\u0000\u0000\u0000\u0000\u0000\u0000\u0000\u0000\u0000\u0000\u0000\u0000\u0000\u0000\u0000",
        "\u0000\u0000\u0000\u0000\u0000\u0000\u0000\u0000\u0000\u0000\u0000\u0000\u0000\u0000\u0000\u0000\u0000\u0000\u0000\u0000\u0000\u0000\u0000\u0000\u0000\u0000\u0000\u0000\u0000\u0000\u0000\u0000\u0000\u0000\u0000\u0000\u0000\u0000\u0000\u0000\u0000\u0000\u0000\u0000\u0000\u0000\u0000\u0000\u0000\u0000\u0000\u0000\u0000\u0000\u0000\u0000\u0000\u0000\u0000\u0000\u0000\u0000\u0000\u0000\u0000\u0000\u0000\u0000\u0000\u0000\u0000\u0000\u0000\u0000\u0000\u0000\u0000\u0000\u0000\u0000\u0000\u0000\u0000\u0000\u0000\u0000\u0000\u0000\u0000\u0000\u0000\u0000\u0000\u0000\u0000\u0000\u0000\u0000\u0000\u0000\u0000\u0000",
        "\u0000\u0000\u0000\u0000\u0000\u0000\u0000\u0000\u0000\u0000\u0000\u0000\u0000\u0000\u0000\u0000\u0000\u0000\u0000\u0000\u0000\u0000\u0000\u0000\u0000\u0000\u0000\u0000\u0000\u0000\u0000\u0000\u0000\u0000\u0000\u0000\u0000\u0000\u0000\u0000\u0000\u0000\u0000\u0000\u0000\u0000\u0000\u0000\u0000\u0000\u0000\u0000\u0000\u0000\u0000\u0000\u0000\u0000\u0000\u0000\u0000\u0000\u0000\u0000\u0000\u0000\u0000\u0000\u0000\u0000\u0000\u0000\u0000\u0000\u0000\u0000\u0000\u0000\u0000\u0000\u0000\u0000\u0000\u0000\u0000\u0000\u0000\u0000\u0000\u0000\u0000\u0000\u0000\u0000\u0000\u0000\u0000\u0000\u0000\u0000\u0000\u0000",
        "\u0000\u0000\u0000\u0000\u0000\u0000\u0000\u0000\u0000\u0000\u0000\u0000\u0000\u0000\u0000\u0000\u0000\u0000\u0000\u0000\u0000\u0000\u0000\u0000\u0000\u0000\u0000\u0000\u0000\u0000\u0000\u0000\u0000\u0000\u0000\u0000\u0000\u0000\u0000\u0000\u0000\u0000\u0000\u0000\u0000\u0000\u0000\u0000\u0000\u0000\u0000\u0000\u0000\u0000\u0000\u0000\u0000\u0000\u0000\u0000\u0000\u0000\u0000\u0000\u0000\u0000\u0000\u0000\u0000\u0000\u0000\u0000\u0000\u0000\u0000\u0000\u0000\u0000\u0000\u0000\u0000\u0000\u0000\u0000\u0000\u0000\u0000\u0000\u0000\u0000\u0000\u0000\u0000\u0000\u0000\u0000\u0000\u0000\u0000\u0000\u0000\u0000",
        "\u0000\u0000\u0000\u0000\u0000\u0000\u0000\u0000\u0000\u0000\u0000\u0000\u0000\u0000\u0000\u0000\u0000\u0000\u0000\u0000\u0000\u0000\u0000\u0000\u0000\u0000\u0000\u0000\u0000\u0000\u0000\u0000\u0000\u0000\u0000\u0000\u0000\u0000\u0000\u0000\u0000\u0000\u0000\u0000\u0000\u0000\u0000\u0000\u0000\u0000\u0000\u0000\u0000\u0000\u0000\u0000\u0000\u0000\u0000\u0000\u0000\u0000\u0000\u0000\u0000\u0000\u0000\u0000\u0000\u0000\u0000\u0000\u0000\u0000\u0000\u0000\u0000\u0000\u0000\u0000\u0000\u0000\u0000\u0000\u0000\u0000\u0000\u0000\u0000\u0000\u0000\u0000\u0000\u0000\u0000\u0000\u0000\u0000\u0000\u0000\u0000\u0000",
        "\u0000\u0000\u0000\u0000\u0000\u0000\u0000\u0000\u0000\u0000\u0000\u0000\u0000\u0000\u0000\u0000\u0000\u0000\u0000\u0000\u0000\u0000\u0000\u0000\u0000\u0000\u0000\u0000\u0000\u0000\u0000\u0000\u0000\u0000\u0000\u0000\u0000\u0000\u0000\u0000\u0000\u0000\u0000\u0000\u0000\u0000\u0000\u0000\u0000\u0000\u0000\u0000\u0000\u0000\u0000\u0000\u0000\u0000\u0000\u0000\u0000\u0000\u0000\u0000\u0000\u0000\u0000\u0000\u0000\u0000\u0000\u0000\u0000\u0000\u0000\u0000\u0000\u0000\u0000\u0000\u0000\u0000\u0000\u0000\u0000\u0000\u0000\u0000\u0000\u0000\u0000\u0000\u0000\u0000\u0000\u0000\u0000\u0000\u0000\u0000\u0000\u0000",
        "\u0000\u0000\u0000\u0000\u0000\u0000\u0000\u0000\u0000\u0000\u0000\u0000\u0000\u0000\u0000\u0000\u0000\u0000\u0000\u0000\u0000\u0000\u0000\u0000\u0000\u0000\u0000\u0000\u0000\u0000\u0000\u0000\u0000\u0000\u0000\u0000\u0000\u0000\u0000\u0000\u0000\u0000\u0000\u0000\u0000\u0000\u0000\u0000\u0000\u0000\u0000\u0000\u0000\u0000\u0000\u0000\u0000\u0000\u0000\u0000\u0000\u0000\u0000\u0000\u0000\u0000\u0000\u0000\u0000\u0000\u0000\u0000\u0000\u0000\u0000\u0000\u0000\u0000\u0000\u0000\u0000\u0000\u0000\u0000\u0000\u0000\u0000\u0000\u0000\u0000\u0000\u0000\u0000\u0000\u0000\u0000\u0000\u0000\u0000\u0000\u0000\u0000",
