{
  "AcquisitionMatrixPE": 70,
  "AcquisitionNumber": 1,
  "AcquisitionTime": "14:01:59.095000",
  "BandwidthPerPixelPhaseEncode": 51.948,
  "BaseResolution": 70,
  "BodyPartExamined": "HEAD",
  "CoilCombinationMethod": "Sum of Squares",
  "ConsistencyInfo": "N4_VE11C_LATEST_20160120",
  "ConversionSoftware": "dcm2niix",
  "ConversionSoftwareVersion": "v1.0.20220720",
  "DerivedVendorReportedEchoSpacing": 0.000550001,
  "DeviceSerialNumber": "66061",
  "DwellTime": 3.3e-06,
  "EchoTime": 0.022,
  "EchoTrainLength": 35,
  "EffectiveEchoSpacing": 0.000275,
  "FlipAngle": 90,
  "HeudiconvVersion": "1.1.1",
  "ImageOrientationPatientDICOM": [0.99935, 0.00783077, 0.035178, -0.00122092, 0.982904, -0.184114],
  "ImageOrientationText": "Tra>Cor(-10.6)>Sag(2.1)",
  "ImageType": [
    "ORIGINAL",
    "PRIMARY",
    "M",
    "ND",
    "NORM",
    "MOSAIC"
],
  "ImagingFrequency": 123.255,
  "InPlanePhaseEncodingDirectionDICOM": "COL",
  "InstitutionAddress": "Street StreetNo,City/1c4204/,District,KR,ZIP",
  "InstitutionName": "SKKU",
  "InstitutionalDepartmentName": "Department",
  "MRAcquisitionType": "2D",
  "MagneticFieldStrength": 3,
  "Manufacturer": "Siemens",
  "ManufacturersModelName": "Prisma",
  "MatrixCoilMode": "GRAPPA",
  "Modality": "MR",
  "NonlinearGradientCorrection": false,
  "ParallelReductionFactorInPlane": 2,
  "PartialFourier": 1,
  "PatientPosition": "HFS",
  "PercentPhaseFOV": 100,
  "PercentSampling": 100,
  "PhaseEncodingDirection": "j-",
  "PhaseEncodingSteps": 70,
  "PhaseResolution": 1,
  "PixelBandwidth": 2165,
  "ProcedureStepDescription": "Head^PI:Others",
  "ProtocolName": "BOLD_ep2d_3x3x3_feature4",
  "PulseSequenceDetails": "%SiemensSeq%\\ep2d_pace",
  "ReceiveCoilActiveElements": "HC1-7",
  "ReceiveCoilName": "HeadNeck_64",
  "ReconMatrixPE": 70,
  "RefLinesPE": 24,
  "RepetitionTime": 2,
  "SAR": 0.119715,
  "ScanOptions": "FS",
  "ScanningSequence": "EP",
  "SequenceName": "*epfid2d1_70",
  "SequenceVariant": "SK",
  "SeriesDescription": "BOLD_ep2d_3x3x3_feature4",
  "SeriesNumber": 11,
  "ShimSetting": [5064, 3689, 4441, 446, -36, -66, 97, 33],
  "SliceThickness": 3,
  "SliceTiming": [0.99, 0, 1.0375, 0.0475, 1.0825, 0.0925, 1.13, 0.14, 1.1775, 0.1875, 1.225, 0.235, 1.2725, 0.2825, 1.32, 0.33, 1.3675, 0.3775, 1.4125, 0.4225, 1.46, 0.47, 1.5075, 0.5175, 1.555, 0.565, 1.6025, 0.6125, 1.65, 0.66, 1.6975, 0.7075, 1.7425, 0.7525, 1.79, 0.8, 1.8375, 0.8475, 1.885, 0.895, 1.9325, 0.9425],
  "SoftwareVersions": "syngo MR E11",
  "SpacingBetweenSlices": 3,
  "StationName": "AWP66061",
  "TaskName": "feature",
  "TotalReadoutTime": 0.018975,
  "TxRefAmp": 219.323,
  "dcmmeta_affine": [
    [-2.998051166534424, -0.003662755945697427, 0.10805519670248032, 100.98734283447266],
    [-0.023492299020290375, 2.9487123489379883, -0.5518540740013123, -81.4886703491211],
    [0.105534128844738, 0.5523416996002197, 2.9468257427215576, -69.55382537841797],
    [0.0, 0.0, 0.0, 1.0]
],
  "dcmmeta_reorient_transform": [
    [0.0, -1.0, 0.0, 69.0],
    [1.0, 0.0, 0.0, 0.0],
    [0.0, 0.0, -1.0, 41.0],
    [0.0, 0.0, 0.0, 1.0]
],
  "dcmmeta_shape": [70, 70, 42, 221],
  "dcmmeta_slice_dim": 2,
  "dcmmeta_version": 0.6,
  "global": {
    "const": {
      "AcquisitionMatrix": [70, 0, 0, 70],
      "AngioFlag": "N",
      "BitsAllocated": 16,
      "BitsStored": 12,
      "BodyPartExamined": "HEAD",
      "Columns": 490,
      "EchoNumbers": 1,
      "EchoTime": 22.0,
      "EchoTrainLength": 35,
      "FlipAngle": 90.0,
      "HighBit": 11,
      "ImageOrientationPatient": [0.99935038116473, 0.00783076625464, 0.0351780438027, -0.0012209186642, 0.98290415497466, -0.1841139090106],
      "ImagePositionPatient": [-733.98643961109, -723.50947538448, 183.20720266364],
      "ImageType": [
        "ORIGINAL",
        "PRIMARY",
        "M",
        "ND",
        "NORM",
        "MOSAIC"
],
      "ImagedNucleus": "1H",
      "ImagingFrequency": 123.25465,
      "InPlanePhaseEncodingDirection": "COL",
      "MRAcquisitionType": "2D",
      "MagneticFieldStrength": 3.0,
      "Manufacturer": "SIEMENS",
      "ManufacturerModelName": "Prisma",
      "Modality": "MR",
      "NumberOfAverages": 1.0,
      "NumberOfPhaseEncodingSteps": 70,
      "PercentPhaseFieldOfView": 100.0,
      "PercentSampling": 100.0,
      "PerformedProcedureStepStartTime": "124814.018000",
      "PhotometricInterpretation": "MONOCHROME2",
      "PixelBandwidth": 2165.0,
      "PixelRepresentation": 0,
      "PixelSpacing": [3.0, 3.0],
      "ProtocolName": "BOLD_ep2d_3x3x3_feature4",
      "RepetitionTime": 2000.0,
      "Rows": 490,
      "SAR": 0.11971482215532,
      "SamplesPerPixel": 1,
      "ScanOptions": "FS",
      "ScanningSequence": "EP",
      "SequenceName": "*epfid2d1_70",
      "SequenceVariant": "SK",
      "SeriesDescription": "BOLD_ep2d_3x3x3_feature4",
      "SeriesNumber": 11,
      "SeriesTime": "140239.956000",
      "SliceLocation": 73.306359329166,
      "SliceThickness": 3.0,
      "SmallestImagePixelValue": 0,
      "SoftwareVersions": "syngo MR E11",
      "SpacingBetweenSlices": 3.0000000189977,
      "SpecificCharacterSet": "ISO_IR 100",
      "StudyID": "1",
      "StudyTime": "124813.931000",
      "TransmitCoilName": "Body",
      "VariableFlipAngleFlag": "N",
      "WindowCenterWidthExplanation": "Algo1",
      "dBdt": 0.0},
    "slices": {}
  },
  "time": {
    "samples": {
      "AcquisitionNumber": [1, 2, 3, 4, 5, 6, 7, 8, 9, 10, 11, 12, 13, 14, 15, 16, 17, 18, 19, 20, 21, 22, 23, 24, 25, 26, 27, 28, 29, 30, 31, 32, 33, 34, 35, 36, 37, 38, 39, 40, 41, 42, 43, 44, 45, 46, 47, 48, 49, 50, 51, 52, 53, 54, 55, 56, 57, 58, 59, 60, 61, 62, 63, 64, 65, 66, 67, 68, 69, 70, 71, 72, 73, 74, 75, 76, 77, 78, 79, 80, 81, 82, 83, 84, 85, 86, 87, 88, 89, 90, 91, 92, 93, 94, 95, 96, 97, 98, 99, 100, 101, 102, 103, 104, 105, 106, 107, 108, 109, 110, 111, 112, 113, 114, 115, 116, 117, 118, 119, 120, 121, 122, 123, 124, 125, 126, 127, 128, 129, 130, 131, 132, 133, 134, 135, 136, 137, 138, 139, 140, 141, 142, 143, 144, 145, 146, 147, 148, 149, 150, 151, 152, 153, 154, 155, 156, 157, 158, 159, 160, 161, 162, 163, 164, 165, 166, 167, 168, 169, 170, 171, 172, 173, 174, 175, 176, 177, 178, 179, 180, 181, 182, 183, 184, 185, 186, 187, 188, 189, 190, 191, 192, 193, 194, 195, 196, 197, 198, 199, 200, 201, 202, 203, 204, 205, 206, 207, 208, 209, 210, 211, 212, 213, 214, 215, 216, 217, 218, 219, 220, 221],
      "AcquisitionTime": ["140159.095000", "140201.095000", "140203.095000", "140205.095000", "140207.095000", "140209.095000", "140211.095000", "140213.095000", "140215.095000", "140217.095000", "140219.095000", "140221.095000", "140223.095000", "140225.095000", "140227.095000", "140229.095000", "140231.095000", "140233.095000", "140235.095000", "140237.095000", "140239.095000", "140241.095000", "140243.095000", "140245.095000", "140247.095000", "140249.095000", "140251.095000", "140253.095000", "140255.095000", "140257.095000", "140259.095000", "140301.095000", "140303.095000", "140305.095000", "140307.095000", "140309.095000", "140311.095000", "140313.095000", "140315.095000", "140317.095000", "140319.095000", "140321.095000", "140323.095000", "140325.095000", "140327.095000", "140329.095000", "140331.095000", "140333.095000", "140335.095000", "140337.095000", "140339.095000", "140341.095000", "140343.095000", "140345.095000", "140347.095000", "140349.095000", "140351.095000", "140353.095000", "140355.095000", "140357.095000", "140359.095000", "140401.095000", "140403.095000", "140405.095000", "140407.095000", "140409.095000", "140411.095000", "140413.095000", "140415.095000", "140417.095000", "140419.095000", "140421.095000", "140423.095000", "140425.095000", "140427.095000", "140429.095000", "140431.095000", "140433.095000", "140435.095000", "140437.095000", "140439.095000", "140441.095000", "140443.095000", "140445.095000", "140447.095000", "140449.095000", "140451.095000", "140453.095000", "140455.095000", "140457.095000", "140459.095000", "140501.095000", "140503.095000", "140505.095000", "140507.095000", "140509.095000", "140511.095000", "140513.095000", "140515.095000", "140517.095000", "140519.095000", "140521.095000", "140523.095000", "140525.095000", "140527.095000", "140529.095000", "140531.095000", "140533.095000", "140535.095000", "140537.095000", "140539.095000", "140541.095000", "140543.095000", "140545.095000", "140547.095000", "140549.095000", "140551.095000", "140553.095000", "140555.095000", "140557.095000", "140559.095000", "140601.095000", "140603.095000", "140605.095000", "140607.095000", "140609.095000", "140611.095000", "140613.095000", "140615.095000", "140617.095000", "140619.095000", "140621.095000", "140623.095000", "140625.095000", "140627.095000", "140629.095000", "140631.095000", "140633.095000", "140635.095000", "140637.095000", "140639.095000", "140641.095000", "140643.095000", "140645.095000", "140647.095000", "140649.095000", "140651.095000", "140653.095000", "140655.095000", "140657.095000", "140659.095000", "140701.095000", "140703.095000", "140705.095000", "140707.095000", "140709.095000", "140711.095000", "140713.095000", "140715.095000", "140717.095000", "140719.095000", "140721.095000", "140723.095000", "140725.095000", "140727.095000", "140729.095000", "140731.095000", "140733.095000", "140735.095000", "140737.095000", "140739.095000", "140741.095000", "140743.095000", "140745.095000", "140747.095000", "140749.095000", "140751.095000", "140753.095000", "140755.095000", "140757.095000", "140759.095000", "140801.095000", "140803.095000", "140805.095000", "140807.095000", "140809.095000", "140811.095000", "140813.095000", "140815.095000", "140817.095000", "140819.095000", "140821.095000", "140823.095000", "140825.095000", "140827.095000", "140829.095000", "140831.095000", "140833.095000", "140835.095000", "140837.095000", "140839.095000", "140841.095000", "140843.095000", "140845.095000", "140847.095000", "140849.095000", "140851.095000", "140853.095000", "140855.095000", "140857.095000", "140859.095000", "140901.095000", "140903.095000", "140905.095000", "140907.095000", "140909.095000", "140911.095000", "140913.095000", "140915.095000", "140917.095000", "140919.095000"],
      "ContentTime": ["140239.959000", "140239.963000", "140239.965000", "140239.968000", "140239.979000", "140239.982000", "140239.984000", "140239.987000", "140239.990000", "140239.992000", "140239.995000", "140239.997000", "140240.001000", "140240.004000", "140240.006000", "140240.009000", "140240.011000", "140240.014000", "140240.017000", "140240.019000", "140319.955000", "140319.958000", "140319.960000", "140319.963000", "140319.965000", "140319.968000", "140319.971000", "140319.973000", "140319.981000", "140319.984000", "140319.986000", "140319.989000", "140319.992000", "140319.994000", "140319.997000", "140320.001000", "140320.003000", "140320.006000", "140320.008000", "140320.011000", "140359.955000", "140359.957000", "140359.960000", "140359.963000", "140359.965000", "140359.968000", "140359.982000", "140359.985000", "140359.987000", "140359.990000", "140359.993000", "140359.995000", "140359.998000", "140400.002000", "140400.004000", "140400.007000", "140400.010000", "140400.012000", "140400.015000", "140400.017000", "140439.954000", "140439.957000", "140439.960000", "140439.963000", "140439.965000", "140439.968000", "140439.971000", "140439.973000", "140439.976000", "140439.979000", "140439.981000", "140439.984000", "140439.987000", "140439.989000", "140439.992000", "140439.994000", "140439.997000", "140440.001000", "140440.003000", "140440.006000", "140519.954000", "140519.957000", "140519.976000", "140519.979000", "140519.982000", "140519.984000", "140519.987000", "140519.990000", "140519.992000", "140519.995000", "140519.998000", "140520.001000", "140520.004000", "140520.006000", "140520.009000", "140520.012000", "140520.014000", "140520.017000", "140520.020000", "140520.022000", "140559.954000", "140559.957000", "140559.960000", "140559.963000", "140559.965000", "140559.968000", "140559.971000", "140559.973000", "140559.976000", "140559.979000", "140559.981000", "140559.984000", "140559.987000", "140559.989000", "140559.992000", "140559.995000", "140559.997000", "140600.000000", "140600.003000", "140600.005000", "140639.955000", "140639.957000", "140639.960000", "140639.963000", "140639.965000", "140639.968000", "140639.971000", "140639.973000", "140639.976000", "140639.979000", "140639.981000", "140639.984000", "140639.986000", "140639.989000", "140639.992000", "140639.994000", "140639.997000", "140640.001000", "140640.003000", "140640.006000", "140719.955000", "140719.957000", "140719.960000", "140719.963000", "140719.965000", "140719.968000", "140719.971000", "140719.973000", "140719.976000", "140719.979000", "140719.981000", "140719.984000", "140719.986000", "140719.989000", "140719.992000", "140719.994000", "140719.997000", "140720.001000", "140720.003000", "140720.006000", "140759.954000", "140759.957000", "140759.960000", "140759.963000", "140759.965000", "140759.968000", "140759.971000", "140759.973000", "140759.976000", "140759.978000", "140759.981000", "140759.984000", "140759.986000", "140759.989000", "140759.992000", "140759.994000", "140759.997000", "140800.001000", "140800.003000", "140800.011000", "140839.955000", "140839.957000", "140839.960000", "140839.963000", "140839.965000", "140839.968000", "140839.971000", "140839.973000", "140839.976000", "140839.979000", "140839.981000", "140839.984000", "140839.987000", "140839.989000", "140839.992000", "140839.994000", "140839.997000", "140840.001000", "140840.003000", "140840.006000", "140859.955000", "140859.958000", "140859.960000", "140859.963000", "140859.966000", "140859.968000", "140859.971000", "140859.973000", "140859.976000", "140859.979000", "140921.103000", "140921.106000", "140921.109000", "140921.111000", "140921.114000", "140921.117000", "140921.119000", "140921.122000", "140921.125000", "140921.128000", "140921.130000"],
      "InstanceCreationTime": ["140239.959000", "140239.963000", "140239.965000", "140239.968000", "140239.979000", "140239.982000", "140239.984000", "140239.987000", "140239.990000", "140239.992000", "140239.995000", "140239.997000", "140240.001000", "140240.004000", "140240.006000", "140240.009000", "140240.011000", "140240.014000", "140240.017000", "140240.019000", "140319.955000", "140319.958000", "140319.960000", "140319.963000", "140319.965000", "140319.968000", "140319.971000", "140319.973000", "140319.981000", "140319.984000", "140319.986000", "140319.989000", "140319.992000", "140319.994000", "140319.997000", "140320.001000", "140320.003000", "140320.006000", "140320.008000", "140320.011000", "140359.955000", "140359.957000", "140359.960000", "140359.963000", "140359.965000", "140359.968000", "140359.982000", "140359.985000", "140359.987000", "140359.990000", "140359.993000", "140359.995000", "140359.998000", "140400.002000", "140400.004000", "140400.007000", "140400.010000", "140400.012000", "140400.015000", "140400.017000", "140439.954000", "140439.957000", "140439.960000", "140439.963000", "140439.965000", "140439.968000", "140439.971000", "140439.973000", "140439.976000", "140439.979000", "140439.981000", "140439.984000", "140439.987000", "140439.989000", "140439.992000", "140439.994000", "140439.997000", "140440.001000", "140440.003000", "140440.006000", "140519.954000", "140519.957000", "140519.976000", "140519.979000", "140519.982000", "140519.984000", "140519.987000", "140519.990000", "140519.992000", "140519.995000", "140519.998000", "140520.001000", "140520.004000", "140520.006000", "140520.009000", "140520.012000", "140520.014000", "140520.017000", "140520.020000", "140520.022000", "140559.954000", "140559.957000", "140559.960000", "140559.963000", "140559.965000", "140559.968000", "140559.971000", "140559.973000", "140559.976000", "140559.979000", "140559.981000", "140559.984000", "140559.987000", "140559.989000", "140559.992000", "140559.995000", "140559.997000", "140600.000000", "140600.003000", "140600.005000", "140639.955000", "140639.957000", "140639.960000", "140639.963000", "140639.965000", "140639.968000", "140639.971000", "140639.973000", "140639.976000", "140639.979000", "140639.981000", "140639.984000", "140639.986000", "140639.989000", "140639.992000", "140639.994000", "140639.997000", "140640.001000", "140640.003000", "140640.006000", "140719.955000", "140719.957000", "140719.960000", "140719.963000", "140719.965000", "140719.968000", "140719.971000", "140719.973000", "140719.976000", "140719.979000", "140719.981000", "140719.984000", "140719.986000", "140719.989000", "140719.992000", "140719.994000", "140719.997000", "140720.001000", "140720.003000", "140720.006000", "140759.954000", "140759.957000", "140759.960000", "140759.963000", "140759.965000", "140759.968000", "140759.971000", "140759.973000", "140759.976000", "140759.978000", "140759.981000", "140759.984000", "140759.986000", "140759.989000", "140759.992000", "140759.994000", "140759.997000", "140800.001000", "140800.003000", "140800.011000", "140839.955000", "140839.957000", "140839.960000", "140839.963000", "140839.965000", "140839.968000", "140839.971000", "140839.973000", "140839.976000", "140839.979000", "140839.981000", "140839.984000", "140839.987000", "140839.989000", "140839.992000", "140839.994000", "140839.997000", "140840.001000", "140840.003000", "140840.006000", "140859.955000", "140859.958000", "140859.960000", "140859.963000", "140859.966000", "140859.968000", "140859.971000", "140859.973000", "140859.976000", "140859.979000", "140921.103000", "140921.106000", "140921.109000", "140921.111000", "140921.114000", "140921.117000", "140921.119000", "140921.122000", "140921.125000", "140921.128000", "140921.130000"],
      "InstanceNumber": [1, 2, 3, 4, 5, 6, 7, 8, 9, 10, 11, 12, 13, 14, 15, 16, 17, 18, 19, 20, 21, 22, 23, 24, 25, 26, 27, 28, 29, 30, 31, 32, 33, 34, 35, 36, 37, 38, 39, 40, 41, 42, 43, 44, 45, 46, 47, 48, 49, 50, 51, 52, 53, 54, 55, 56, 57, 58, 59, 60, 61, 62, 63, 64, 65, 66, 67, 68, 69, 70, 71, 72, 73, 74, 75, 76, 77, 78, 79, 80, 81, 82, 83, 84, 85, 86, 87, 88, 89, 90, 91, 92, 93, 94, 95, 96, 97, 98, 99, 100, 101, 102, 103, 104, 105, 106, 107, 108, 109, 110, 111, 112, 113, 114, 115, 116, 117, 118, 119, 120, 121, 122, 123, 124, 125, 126, 127, 128, 129, 130, 131, 132, 133, 134, 135, 136, 137, 138, 139, 140, 141, 142, 143, 144, 145, 146, 147, 148, 149, 150, 151, 152, 153, 154, 155, 156, 157, 158, 159, 160, 161, 162, 163, 164, 165, 166, 167, 168, 169, 170, 171, 172, 173, 174, 175, 176, 177, 178, 179, 180, 181, 182, 183, 184, 185, 186, 187, 188, 189, 190, 191, 192, 193, 194, 195, 196, 197, 198, 199, 200, 201, 202, 203, 204, 205, 206, 207, 208, 209, 210, 211, 212, 213, 214, 215, 216, 217, 218, 219, 220, 221],
      "LargestImagePixelValue": [2090, 1876, 1919, 1863, 1995, 1849, 2117, 2299, 2152, 2140, 1894, 2071, 1959, 2091, 2171, 2115, 1916, 1945, 1861, 2135, 1948, 2239, 2408, 1969, 1969, 1866, 2073, 1841, 2081, 2044, 1930, 1908, 1946, 1974, 1880, 1963, 2012, 2090, 1955, 1920, 1941, 1721, 1968, 1829, 2231, 1985, 1836, 2006, 1857, 2362, 2071, 1785, 2133, 2081, 1969, 1938, 2081, 1953, 1869, 1820, 2203, 2022, 2116, 2174, 1748, 1912, 1787, 1966, 1916, 2201, 1982, 1846, 2072, 1770, 1997, 1872, 2270, 2140, 2248, 1976, 1874, 2125, 2095, 2044, 1787, 2425, 1898, 1727, 2190, 2069, 1817, 2022, 1798, 2331, 1986, 1828, 1898, 1785, 2025, 2020, 1795, 1968, 1872, 1887, 1801, 1946, 1732, 1917, 1907, 1981, 1989, 2127, 2028, 1789, 2122, 1958, 2231, 1871, 1771, 2059, 1865, 2193, 1936, 1785, 1963, 1795, 2094, 1911, 1724, 1917, 1920, 1757, 2069, 2005, 2212, 2176, 2162, 2005, 2265, 1955, 2283, 1951, 1902, 1809, 2116, 2092, 2057, 2164, 1913, 1890, 1786, 2050, 1991, 1923, 2468, 1912, 2024, 2167, 2067, 2107, 1847, 2302, 1893, 1732, 2076, 2055, 1817, 2077, 1754, 2041, 1709, 1924, 1933, 1882, 1828, 1859, 1737, 2131, 1995, 2315, 2136, 1969, 1958, 1780, 2214, 2035, 1953, 2009, 1810, 1976, 2101, 1927, 2063, 1951, 2081, 2101, 1913, 1876, 1845, 2346, 1924, 1773, 2049, 1974, 1710, 2224, 2038, 1859, 2458, 2033, 1815, 2299, 1930, 1762, 1962, 2033, 1845, 2017, 1771, 2052, 1773],
      "WindowCenter": [820.0, 819.0, 818.0, 818.0, 818.0, 818.0, 818.0, 819.0, 818.0, 819.0, 819.0, 820.0, 818.0, 819.0, 819.0, 818.0, 817.0, 817.0, 817.0, 818.0, 818.0, 820.0, 820.0, 819.0, 819.0, 818.0, 818.0, 818.0, 819.0, 819.0, 819.0, 819.0, 818.0, 817.0, 817.0, 817.0, 818.0, 818.0, 818.0, 818.0, 818.0, 818.0, 819.0, 819.0, 820.0, 819.0, 819.0, 819.0, 819.0, 819.0, 819.0, 817.0, 819.0, 819.0, 819.0, 819.0, 819.0, 819.0, 819.0, 819.0, 820.0, 819.0, 818.0, 818.0, 817.0, 818.0, 818.0, 818.0, 818.0, 819.0, 818.0, 818.0, 819.0, 818.0, 819.0, 819.0, 820.0, 820.0, 819.0, 819.0, 818.0, 819.0, 818.0, 819.0, 819.0, 820.0, 819.0, 819.0, 820.0, 819.0, 818.0, 819.0, 818.0, 819.0, 818.0, 818.0, 818.0, 818.0, 818.0, 819.0, 819.0, 819.0, 819.0, 818.0, 818.0, 818.0, 818.0, 819.0, 819.0, 819.0, 819.0, 819.0, 819.0, 819.0, 819.0, 819.0, 819.0, 819.0, 819.0, 819.0, 818.0, 819.0, 819.0, 818.0, 819.0, 818.0, 819.0, 819.0, 818.0, 819.0, 820.0, 819.0, 819.0, 818.0, 818.0, 818.0, 818.0, 819.0, 819.0, 818.0, 818.0, 818.0, 818.0, 818.0, 820.0, 820.0, 819.0, 819.0, 818.0, 819.0, 819.0, 820.0, 820.0, 818.0, 820.0, 817.0, 819.0, 818.0, 818.0, 818.0, 818.0, 819.0, 818.0, 818.0, 818.0, 818.0, 818.0, 819.0, 818.0, 819.0, 818.0, 819.0, 818.0, 818.0, 819.0, 819.0, 819.0, 820.0, 819.0, 819.0, 819.0, 818.0, 818.0, 818.0, 820.0, 820.0, 819.0, 819.0, 818.0, 819.0, 819.0, 820.0, 820.0, 818.0, 818.0, 818.0, 818.0, 819.0, 818.0, 819.0, 819.0, 819.0, 820.0, 820.0, 818.0, 819.0, 819.0, 818.0, 819.0, 818.0, 818.0, 819.0, 818.0, 817.0, 818.0, 819.0, 818.0, 818.0, 817.0, 817.0, 817.0],
      "WindowWidth": [1746.0, 1741.0, 1741.0, 1739.0, 1740.0, 1739.0, 1742.0, 1743.0, 1741.0, 1743.0, 1744.0, 1744.0, 1741.0, 1743.0, 1743.0, 1741.0, 1739.0, 1739.0, 1739.0, 1742.0, 1742.0, 1746.0, 1746.0, 1743.0, 1742.0, 1741.0, 1742.0, 1741.0, 1744.0, 1743.0, 1743.0, 1742.0, 1739.0, 1739.0, 1738.0, 1738.0, 1740.0, 1742.0, 1742.0, 1741.0, 1741.0, 1740.0, 1743.0, 1742.0, 1746.0, 1744.0, 1742.0, 1744.0, 1742.0, 1745.0, 1743.0, 1739.0, 1744.0, 1744.0, 1744.0, 1743.0, 1745.0, 1744.0, 1743.0, 1743.0, 1746.0, 1743.0, 1742.0, 1741.0, 1738.0, 1741.0, 1740.0, 1742.0, 1740.0, 1743.0, 1742.0, 1740.0, 1743.0, 1740.0, 1743.0, 1744.0, 1748.0, 1745.0, 1745.0, 1743.0, 1741.0, 1743.0, 1741.0, 1743.0, 1742.0, 1747.0, 1742.0, 1742.0, 1746.0, 1745.0, 1741.0, 1744.0, 1741.0, 1745.0, 1742.0, 1740.0, 1741.0, 1739.0, 1741.0, 1743.0, 1742.0, 1744.0, 1742.0, 1742.0, 1740.0, 1741.0, 1740.0, 1742.0, 1742.0, 1742.0, 1742.0, 1743.0, 1745.0, 1743.0, 1744.0, 1742.0, 1743.0, 1742.0, 1742.0, 1744.0, 1740.0, 1743.0, 1742.0, 1740.0, 1742.0, 1740.0, 1742.0, 1742.0, 1740.0, 1743.0, 1745.0, 1743.0, 1744.0, 1742.0, 1742.0, 1742.0, 1742.0, 1743.0, 1745.0, 1741.0, 1742.0, 1740.0, 1740.0, 1740.0, 1746.0, 1746.0, 1744.0, 1744.0, 1741.0, 1743.0, 1742.0, 1745.0, 1745.0, 1740.0, 1747.0, 1738.0, 1742.0, 1740.0, 1741.0, 1742.0, 1740.0, 1744.0, 1741.0, 1739.0, 1741.0, 1741.0, 1739.0, 1742.0, 1740.0, 1743.0, 1741.0, 1742.0, 1741.0, 1741.0, 1742.0, 1744.0, 1743.0, 1745.0, 1743.0, 1744.0, 1743.0, 1741.0, 1741.0, 1740.0, 1746.0, 1745.0, 1743.0, 1742.0, 1740.0, 1742.0, 1745.0, 1744.0, 1744.0, 1741.0, 1741.0, 1741.0, 1740.0, 1742.0, 1741.0, 1745.0, 1744.0, 1744.0, 1746.0, 1745.0, 1741.0, 1744.0, 1742.0, 1741.0, 1744.0, 1741.0, 1739.0, 1743.0, 1740.0, 1737.0, 1740.0, 1742.0, 1741.0, 1741.0, 1738.0, 1739.0, 1737.0]
    },
    "slices": {}
  }
}