{
  "AcquisitionMatrixPE": 70,
  "AcquisitionNumber": 1,
  "AcquisitionTime": "12:20:6.300000",
  "BandwidthPerPixelPhaseEncode": 51.948,
  "BaseResolution": 70,
  "BodyPartExamined": "HEAD",
  "CoilCombinationMethod": "Sum of Squares",
  "ConsistencyInfo": "N4_VE11C_LATEST_20160120",
  "ConversionSoftware": "dcm2niix",
  "ConversionSoftwareVersion": "v1.0.20220720",
  "DerivedVendorReportedEchoSpacing": 0.000550001,
  "DeviceSerialNumber": "66061",
  "DwellTime": 3.3e-06,
  "EchoTime": 0.022,
  "EchoTrainLength": 35,
  "EffectiveEchoSpacing": 0.000275,
  "FlipAngle": 90,
  "HeudiconvVersion": "1.1.1",
  "ImageOrientationPatientDICOM": [0.999574, 0.00740791, 0.0282298, -0.00122123, 0.97702, -0.213143],
  "ImageOrientationText": "Tra>Cor(-12.3)>Sag(1.7)",
  "ImageType": [
    "ORIGINAL",
    "PRIMARY",
    "M",
    "ND",
    "NORM",
    "MOSAIC"
],
  "ImagingFrequency": 123.254,
  "InPlanePhaseEncodingDirectionDICOM": "COL",
  "InstitutionAddress": "Street StreetNo,City/1c4204/,District,KR,ZIP",
  "InstitutionName": "SKKU",
  "InstitutionalDepartmentName": "Department",
  "MRAcquisitionType": "2D",
  "MagneticFieldStrength": 3,
  "Manufacturer": "Siemens",
  "ManufacturersModelName": "Prisma",
  "MatrixCoilMode": "GRAPPA",
  "Modality": "MR",
  "NonlinearGradientCorrection": false,
  "ParallelReductionFactorInPlane": 2,
  "PartialFourier": 1,
  "PatientPosition": "HFS",
  "PercentPhaseFOV": 100,
  "PercentSampling": 100,
  "PhaseEncodingDirection": "j-",
  "PhaseEncodingSteps": 70,
  "PhaseResolution": 1,
  "PixelBandwidth": 2165,
  "ProcedureStepDescription": "Head^PI:Others",
  "ProtocolName": "BOLD_ep2d_3x3x3_dimension2",
  "PulseSequenceDetails": "%SiemensSeq%\\ep2d_pace",
  "ReceiveCoilActiveElements": "HC1-7",
  "ReceiveCoilName": "HeadNeck_64",
  "ReconMatrixPE": 70,
  "RefLinesPE": 24,
  "RepetitionTime": 2,
  "SAR": 0.135635,
  "ScanOptions": "FS",
  "ScanningSequence": "EP",
  "SequenceName": "*epfid2d1_70",
  "SequenceVariant": "SK",
  "SeriesDescription": "BOLD_ep2d_3x3x3_dimension2",
  "SeriesNumber": 7,
  "ShimSetting": [5030, 3761, 4469, 303, -166, 73, -62, 58],
  "SliceThickness": 3,
  "SliceTiming": [0.99, 0, 1.0375, 0.0475, 1.085, 0.095, 1.1325, 0.1425, 1.18, 0.19, 1.225, 0.235, 1.2725, 0.2825, 1.32, 0.33, 1.3675, 0.3775, 1.415, 0.425, 1.4625, 0.4725, 1.5075, 0.52, 1.555, 0.565, 1.6025, 0.6125, 1.65, 0.66, 1.6975, 0.7075, 1.745, 0.755, 1.7925, 0.8025, 1.8375, 0.85, 1.885, 0.895, 1.9325, 0.9425],
  "SoftwareVersions": "syngo MR E11",
  "SpacingBetweenSlices": 3,
  "StationName": "AWP66061",
  "TaskName": "dimension",
  "TotalReadoutTime": 0.018975,
  "TxRefAmp": 234.551,
  "dcmmeta_affine": [
    [-2.9987220764160156, -0.00366368074901402, 0.08748002350330353, 107.49411010742188],
    [-0.022223738953471184, 2.931060791015625, -0.63905268907547, -87.5755386352539],
    [0.08468932658433914, 0.6394284963607788, 2.9298393726348877, -64.20186614990234],
    [0.0, 0.0, 0.0, 1.0]
],
  "dcmmeta_reorient_transform": [
    [0.0, -1.0, 0.0, 69.0],
    [1.0, 0.0, 0.0, 0.0],
    [0.0, 0.0, -1.0, 41.0],
    [0.0, 0.0, 0.0, 1.0]
],
  "dcmmeta_shape": [70, 70, 42, 437],
  "dcmmeta_slice_dim": 2,
  "dcmmeta_version": 0.6,
  "global": {
    "const": {
      "AcquisitionMatrix": [70, 0, 0, 70],
      "AngioFlag": "N",
      "BitsAllocated": 16,
      "BitsStored": 12,
      "BodyPartExamined": "HEAD",
      "Columns": 490,
      "EchoNumbers": 1,
      "EchoTime": 22.0,
      "EchoTrainLength": 35,
      "FlipAngle": 90.0,
      "HighBit": 11,
      "ImageOrientationPatient": [0.99957401054598, 0.00740791291341, 0.028229776253, -0.0012212268889, 0.9770202866561, -0.2131428348956],
      "ImagePositionPatient": [-739.79024727806, -708.65626724908, 216.53734169359],
      "ImageType": [
        "ORIGINAL",
        "PRIMARY",
        "M",
        "ND",
        "NORM",
        "MOSAIC"
],
      "ImagedNucleus": "1H",
      "ImagingFrequency": 123.254448,
      "InPlanePhaseEncodingDirection": "COL",
      "MRAcquisitionType": "2D",
      "MagneticFieldStrength": 3.0,
      "Manufacturer": "SIEMENS",
      "ManufacturerModelName": "Prisma",
      "Modality": "MR",
      "NumberOfAverages": 1.0,
      "NumberOfPhaseEncodingSteps": 70,
      "PercentPhaseFieldOfView": 100.0,
      "PercentSampling": 100.0,
      "PerformedProcedureStepStartTime": "112941.830000",
      "PhotometricInterpretation": "MONOCHROME2",
      "PixelBandwidth": 2165.0,
      "PixelRepresentation": 0,
      "PixelSpacing": [3.0, 3.0],
      "ProtocolName": "BOLD_ep2d_3x3x3_dimension2",
      "RepetitionTime": 2000.0,
      "Rows": 490,
      "SAR": 0.13563456619104,
      "SamplesPerPixel": 1,
      "ScanOptions": "FS",
      "ScanningSequence": "EP",
      "SequenceName": "*epfid2d1_70",
      "SequenceVariant": "SK",
      "SeriesDescription": "BOLD_ep2d_3x3x3_dimension2",
      "SeriesNumber": 7,
      "SeriesTime": "122052.869000",
      "SliceLocation": 82.089269672243,
      "SliceThickness": 3.0,
      "SmallestImagePixelValue": 0,
      "SoftwareVersions": "syngo MR E11",
      "SpacingBetweenSlices": 3.0000000316076,
      "SpecificCharacterSet": "ISO_IR 100",
      "StudyID": "1",
      "StudyTime": "112941.765000",
      "TransmitCoilName": "Body",
      "VariableFlipAngleFlag": "N",
      "WindowCenterWidthExplanation": "Algo1",
      "dBdt": 0.0},
    "slices": {}
  },
  "time": {
    "samples": {
      "AcquisitionNumber": [1, 2, 3, 4, 5, 6, 7, 8, 9, 10, 11, 12, 13, 14, 15, 16, 17, 18, 19, 20, 21, 22, 23, 24, 25, 26, 27, 28, 29, 30, 31, 32, 33, 34, 35, 36, 37, 38, 39, 40, 41, 42, 43, 44, 45, 46, 47, 48, 49, 50, 51, 52, 53, 54, 55, 56, 57, 58, 59, 60, 61, 62, 63, 64, 65, 66, 67, 68, 69, 70, 71, 72, 73, 74, 75, 76, 77, 78, 79, 80, 81, 82, 83, 84, 85, 86, 87, 88, 89, 90, 91, 92, 93, 94, 95, 96, 97, 98, 99, 100, 101, 102, 103, 104, 105, 106, 107, 108, 109, 110, 111, 112, 113, 114, 115, 116, 117, 118, 119, 120, 121, 122, 123, 124, 125, 126, 127, 128, 129, 130, 131, 132, 133, 134, 135, 136, 137, 138, 139, 140, 141, 142, 143, 144, 145, 146, 147, 148, 149, 150, 151, 152, 153, 154, 155, 156, 157, 158, 159, 160, 161, 162, 163, 164, 165, 166, 167, 168, 169, 170, 171, 172, 173, 174, 175, 176, 177, 178, 179, 180, 181, 182, 183, 184, 185, 186, 187, 188, 189, 190, 191, 192, 193, 194, 195, 196, 197, 198, 199, 200, 201, 202, 203, 204, 205, 206, 207, 208, 209, 210, 211, 212, 213, 214, 215, 216, 217, 218, 219, 220, 221, 222, 223, 224, 225, 226, 227, 228, 229, 230, 231, 232, 233, 234, 235, 236, 237, 238, 239, 240, 241, 242, 243, 244, 245, 246, 247, 248, 249, 250, 251, 252, 253, 254, 255, 256, 257, 258, 259, 260, 261, 262, 263, 264, 265, 266, 267, 268, 269, 270, 271, 272, 273, 274, 275, 276, 277, 278, 279, 280, 281, 282, 283, 284, 285, 286, 287, 288, 289, 290, 291, 292, 293, 294, 295, 296, 297, 298, 299, 300, 301, 302, 303, 304, 305, 306, 307, 308, 309, 310, 311, 312, 313, 314, 315, 316, 317, 318, 319, 320, 321, 322, 323, 324, 325, 326, 327, 328, 329, 330, 331, 332, 333, 334, 335, 336, 337, 338, 339, 340, 341, 342, 343, 344, 345, 346, 347, 348, 349, 350, 351, 352, 353, 354, 355, 356, 357, 358, 359, 360, 361, 362, 363, 364, 365, 366, 367, 368, 369, 370, 371, 372, 373, 374, 375, 376, 377, 378, 379, 380, 381, 382, 383, 384, 385, 386, 387, 388, 389, 390, 391, 392, 393, 394, 395, 396, 397, 398, 399, 400, 401, 402, 403, 404, 405, 406, 407, 408, 409, 410, 411, 412, 413, 414, 415, 416, 417, 418, 419, 420, 421, 422, 423, 424, 425, 426, 427, 428, 429, 430, 431, 432, 433, 434, 435, 436, 437],
      "AcquisitionTime": ["122006.300000", "122008.300000", "122010.300000", "122012.300000", "122014.300000", "122016.300000", "122018.300000", "122020.300000", "122022.300000", "122024.300000", "122026.300000", "122028.300000", "122030.300000", "122032.300000", "122034.300000", "122036.300000", "122038.300000", "122040.300000", "122042.300000", "122044.300000", "122046.300000", "122048.300000", "122050.300000", "122052.300000", "122054.300000", "122056.300000", "122058.300000", "122100.300000", "122102.300000", "122104.300000", "122106.300000", "122108.300000", "122110.300000", "122112.300000", "122114.300000", "122116.300000", "122118.300000", "122120.300000", "122122.300000", "122124.300000", "122126.300000", "122128.300000", "122130.300000", "122132.300000", "122134.300000", "122136.300000", "122138.300000", "122140.300000", "122142.300000", "122144.300000", "122146.300000", "122148.300000", "122150.300000", "122152.300000", "122154.300000", "122156.300000", "122158.300000", "122200.300000", "122202.300000", "122204.300000", "122206.300000", "122208.300000", "122210.300000", "122212.300000", "122214.300000", "122216.300000", "122218.300000", "122220.300000", "122222.300000", "122224.300000", "122226.300000", "122228.300000", "122230.300000", "122232.300000", "122234.300000", "122236.300000", "122238.300000", "122240.300000", "122242.300000", "122244.300000", "122246.300000", "122248.300000", "122250.300000", "122252.300000", "122254.300000", "122256.300000", "122258.300000", "122300.300000", "122302.300000", "122304.300000", "122306.300000", "122308.300000", "122310.300000", "122312.300000", "122314.300000", "122316.300000", "122318.300000", "122320.300000", "122322.300000", "122324.300000", "122326.300000", "122328.300000", "122330.300000", "122332.300000", "122334.300000", "122336.300000", "122338.300000", "122340.300000", "122342.300000", "122344.300000", "122346.300000", "122348.300000", "122350.300000", "122352.300000", "122354.300000", "122356.300000", "122358.300000", "122400.300000", "122402.300000", "122404.300000", "122406.300000", "122408.300000", "122410.300000", "122412.300000", "122414.300000", "122416.300000", "122418.300000", "122420.300000", "122422.300000", "122424.300000", "122426.300000", "122428.300000", "122430.300000", "122432.300000", "122434.300000", "122436.300000", "122438.300000", "122440.300000", "122442.300000", "122444.300000", "122446.300000", "122448.300000", "122450.300000", "122452.300000", "122454.300000", "122456.300000", "122458.300000", "122500.300000", "122502.300000", "122504.300000", "122506.300000", "122508.300000", "122510.300000", "122512.300000", "122514.300000", "122516.300000", "122518.300000", "122520.300000", "122522.300000", "122524.300000", "122526.300000", "122528.300000", "122530.300000", "122532.300000", "122534.300000", "122536.300000", "122538.300000", "122540.300000", "122542.300000", "122544.300000", "122546.300000", "122548.300000", "122550.300000", "122552.300000", "122554.300000", "122556.300000", "122558.300000", "122600.300000", "122602.300000", "122604.300000", "122606.300000", "122608.300000", "122610.300000", "122612.300000", "122614.300000", "122616.300000", "122618.300000", "122620.300000", "122622.300000", "122624.300000", "122626.300000", "122628.300000", "122630.300000", "122632.300000", "122634.300000", "122636.300000", "122638.300000", "122640.300000", "122642.300000", "122644.300000", "122646.300000", "122648.300000", "122650.300000", "122652.300000", "122654.300000", "122656.300000", "122658.300000", "122700.300000", "122702.300000", "122704.300000", "122706.300000", "122708.300000", "122710.300000", "122712.300000", "122714.300000", "122716.300000", "122718.300000", "122720.300000", "122722.300000", "122724.300000", "122726.300000", "122728.300000", "122730.300000", "122732.300000", "122734.300000", "122736.300000", "122738.300000", "122740.300000", "122742.300000", "122744.300000", "122746.300000", "122748.300000", "122750.300000", "122752.300000", "122754.300000", "122756.300000", "122758.300000", "122800.300000", "122802.300000", "122804.300000", "122806.300000", "122808.300000", "122810.300000", "122812.300000", "122814.300000", "122816.300000", "122818.300000", "122820.300000", "122822.300000", "122824.300000", "122826.300000", "122828.300000", "122830.300000", "122832.300000", "122834.300000", "122836.300000", "122838.300000", "122840.300000", "122842.300000", "122844.300000", "122846.300000", "122848.300000", "122850.300000", "122852.300000", "122854.300000", "122856.300000", "122858.300000", "122900.300000", "122902.300000", "122904.300000", "122906.300000", "122908.300000", "122910.300000", "122912.300000", "122914.300000", "122916.300000", "122918.300000", "122920.300000", "122922.300000", "122924.300000", "122926.300000", "122928.300000", "122930.300000", "122932.300000", "122934.300000", "122936.300000", "122938.300000", "122940.300000", "122942.300000", "122944.300000", "122946.300000", "122948.300000", "122950.300000", "122952.300000", "122954.300000", "122956.300000", "122958.300000", "123000.300000", "123002.300000", "123004.300000", "123006.300000", "123008.300000", "123010.300000", "123012.300000", "123014.300000", "123016.300000", "123018.300000", "123020.300000", "123022.300000", "123024.300000", "123026.300000", "123028.300000", "123030.300000", "123032.300000", "123034.300000", "123036.300000", "123038.300000", "123040.300000", "123042.300000", "123044.300000", "123046.300000", "123048.300000", "123050.300000", "123052.300000", "123054.300000", "123056.300000", "123058.300000", "123100.300000", "123102.300000", "123104.300000", "123106.300000", "123108.300000", "123110.300000", "123112.300000", "123114.300000", "123116.300000", "123118.300000", "123120.300000", "123122.300000", "123124.300000", "123126.300000", "123128.300000", "123130.300000", "123132.300000", "123134.300000", "123136.300000", "123138.300000", "123140.300000", "123142.300000", "123144.300000", "123146.300000", "123148.300000", "123150.300000", "123152.300000", "123154.300000", "123156.300000", "123158.300000", "123200.300000", "123202.300000", "123204.300000", "123206.300000", "123208.300000", "123210.300000", "123212.300000", "123214.300000", "123216.300000", "123218.300000", "123220.300000", "123222.300000", "123224.300000", "123226.300000", "123228.300000", "123230.300000", "123232.300000", "123234.300000", "123236.300000", "123238.300000", "123240.300000", "123242.300000", "123244.300000", "123246.300000", "123248.300000", "123250.300000", "123252.300000", "123254.300000", "123256.300000", "123258.300000", "123300.300000", "123302.300000", "123304.300000", "123306.300000", "123308.300000", "123310.300000", "123312.300000", "123314.300000", "123316.300000", "123318.300000", "123320.300000", "123322.300000", "123324.300000", "123326.300000", "123328.300000", "123330.300000", "123332.300000", "123334.300000", "123336.300000", "123338.300000", "123340.300000", "123342.300000", "123344.300000", "123346.300000", "123348.300000", "123350.300000", "123352.300000", "123354.300000", "123356.300000", "123358.300000", "123400.300000", "123402.300000", "123404.300000", "123406.300000", "123408.300000", "123410.300000", "123412.300000", "123414.300000", "123416.300000", "123418.300000", "123420.300000", "123422.300000", "123424.300000", "123426.300000", "123428.300000", "123430.300000", "123432.300000", "123434.300000", "123436.300000", "123438.300000"],
      "ContentTime": ["122052.872000", "122052.876000", "122052.879000", "122052.882000", "122052.884000", "122052.887000", "122052.890000", "122052.893000", "122052.895000", "122052.898000", "122052.901000", "122052.904000", "122052.907000", "122052.909000", "122052.912000", "122052.915000", "122052.928000", "122052.931000", "122052.934000", "122052.936000", "122052.939000", "122052.942000", "122052.945000", "122132.867000", "122132.870000", "122132.873000", "122132.883000", "122132.886000", "122132.889000", "122132.892000", "122132.894000", "122132.897000", "122132.900000", "122132.903000", "122132.912000", "122132.915000", "122132.918000", "122132.920000", "122132.923000", "122132.926000", "122132.928000", "122132.931000", "122132.934000", "122212.867000", "122212.870000", "122212.873000", "122212.875000", "122212.878000", "122212.881000", "122212.884000", "122212.886000", "122212.889000", "122212.892000", "122212.902000", "122212.905000", "122212.907000", "122212.910000", "122212.913000", "122212.916000", "122212.919000", "122212.922000", "122212.924000", "122212.927000", "122252.868000", "122252.871000", "122252.874000", "122252.876000", "122252.879000", "122252.882000", "122252.885000", "122252.887000", "122252.890000", "122252.893000", "122252.896000", "122252.899000", "122252.901000", "122252.904000", "122252.907000", "122252.910000", "122252.912000", "122252.915000", "122252.918000", "122252.921000", "122332.868000", "122332.871000", "122332.874000", "122332.877000", "122332.880000", "122332.883000", "122332.885000", "122332.888000", "122332.891000", "122332.894000", "122332.896000", "122332.899000", "122332.902000", "122332.905000", "122332.907000", "122332.910000", "122332.913000", "122332.916000", "122332.918000", "122332.921000", "122412.867000", "122412.870000", "122412.873000", "122412.875000", "122412.878000", "122412.881000", "122412.884000", "122412.886000", "122412.889000", "122412.892000", "122412.895000", "122412.897000", "122412.906000", "122412.909000", "122412.912000", "122412.915000", "122412.918000", "122412.921000", "122412.923000", "122412.926000", "122452.868000", "122452.871000", "122452.873000", "122452.876000", "122452.879000", "122452.882000", "122452.885000", "122452.887000", "122452.890000", "122452.893000", "122452.896000", "122452.899000", "122452.901000", "122452.904000", "122452.907000", "122452.910000", "122452.912000", "122452.915000", "122452.918000", "122452.921000", "122532.868000", "122532.871000", "122532.874000", "122532.876000", "122532.879000", "122532.882000", "122532.885000", "122532.887000", "122532.890000", "122532.893000", "122532.896000", "122532.899000", "122532.901000", "122532.904000", "122532.907000", "122532.909000", "122532.912000", "122532.915000", "122532.918000", "122532.921000", "122612.867000", "122612.870000", "122612.873000", "122612.875000", "122612.878000", "122612.881000", "122612.884000", "122612.887000", "122612.889000", "122612.892000", "122612.895000", "122612.898000", "122612.900000", "122612.903000", "122612.906000", "122612.909000", "122612.912000", "122612.914000", "122612.917000", "122612.920000", "122632.867000", "122632.870000", "122632.873000", "122632.875000", "122632.878000", "122632.881000", "122632.884000", "122632.886000", "122632.889000", "122632.892000", "122712.868000", "122712.871000", "122712.873000", "122712.876000", "122712.879000", "122712.882000", "122712.884000", "122712.887000", "122712.890000", "122712.892000", "122712.895000", "122712.898000", "122712.901000", "122712.903000", "122712.906000", "122712.909000", "122712.912000", "122712.914000", "122712.917000", "122712.920000", "122752.868000", "122752.871000", "122752.873000", "122752.876000", "122752.879000", "122752.882000", "122752.884000", "122752.887000", "122752.890000", "122752.893000", "122752.895000", "122752.898000", "122752.901000", "122752.903000", "122752.906000", "122752.916000", "122752.918000", "122752.921000", "122752.924000", "122752.927000", "122832.867000", "122832.870000", "122832.872000", "122832.875000", "122832.878000", "122832.881000", "122832.883000", "122832.886000", "122832.889000", "122832.892000", "122832.895000", "122832.897000", "122832.900000", "122832.903000", "122832.905000", "122832.908000", "122832.911000", "122832.919000", "122832.922000", "122832.925000", "122912.867000", "122912.870000", "122912.873000", "122912.876000", "122912.878000", "122912.881000", "122912.884000", "122912.893000", "122912.896000", "122912.899000", "122912.902000", "122912.904000", "122912.907000", "122912.910000", "122912.913000", "122912.916000", "122912.919000", "122912.922000", "122912.925000", "122912.941000", "122952.868000", "122952.871000", "122952.874000", "122952.877000", "122952.888000", "122952.891000", "122952.894000", "122952.896000", "122952.899000", "122952.902000", "122952.905000", "122952.908000", "122952.911000", "122952.913000", "122952.916000", "122952.919000", "122952.922000", "122952.925000", "122952.928000", "122952.931000", "123032.868000", "123032.871000", "123032.874000", "123032.877000", "123032.880000", "123032.882000", "123032.885000", "123032.888000", "123032.895000", "123032.898000", "123032.901000", "123032.904000", "123032.907000", "123032.910000", "123032.913000", "123032.916000", "123032.918000", "123032.921000", "123032.924000", "123032.927000", "123112.867000", "123112.870000", "123112.873000", "123112.876000", "123112.878000", "123112.881000", "123112.884000", "123112.887000", "123112.890000", "123112.892000", "123112.895000", "123112.898000", "123112.901000", "123112.903000", "123112.906000", "123112.909000", "123112.912000", "123112.915000", "123112.917000", "123112.920000", "123152.868000", "123152.871000", "123152.874000", "123152.877000", "123152.879000", "123152.882000", "123152.885000", "123152.888000", "123152.891000", "123152.893000", "123152.896000", "123152.899000", "123152.902000", "123152.905000", "123152.907000", "123152.910000", "123152.913000", "123152.916000", "123152.919000", "123152.921000", "123232.868000", "123232.871000", "123232.882000", "123232.885000", "123232.888000", "123232.891000", "123232.894000", "123232.897000", "123232.900000", "123232.903000", "123232.906000", "123232.909000", "123232.911000", "123232.914000", "123232.917000", "123232.920000", "123232.922000", "123232.925000", "123232.928000", "123232.930000", "123312.867000", "123312.870000", "123312.872000", "123312.875000", "123312.878000", "123312.881000", "123312.884000", "123312.886000", "123312.889000", "123312.892000", "123312.895000", "123312.898000", "123312.900000", "123312.903000", "123312.906000", "123312.908000", "123312.911000", "123312.914000", "123312.917000", "123312.919000", "123352.867000", "123352.870000", "123352.872000", "123352.875000", "123352.878000", "123352.881000", "123352.884000", "123352.886000", "123352.889000", "123352.892000", "123352.894000", "123352.897000", "123352.900000", "123352.903000", "123352.906000", "123352.908000", "123352.911000", "123352.914000", "123352.917000", "123352.919000", "123432.868000", "123432.871000", "123432.873000", "123432.876000", "123432.879000", "123432.882000", "123432.884000", "123432.887000", "123432.890000", "123432.893000", "123432.896000", "123432.899000", "123432.902000", "123432.904000", "123432.907000", "123432.910000", "123432.913000", "123432.915000", "123432.918000", "123432.921000", "123440.142000", "123440.145000", "123440.148000", "123440.151000"],
      "DataSetTrailingPadding": [
        "\u0000\u0000\u0000\u0000\u0000\u0000\u0000\u0000\u0000\u0000\u0000\u0000\u0000\u0000",
        "\u0000\u0000\u0000\u0000\u0000\u0000\u0000\u0000\u0000\u0000\u0000\u0000\u0000\u0000\u0000\u0000",
        "\u0000\u0000\u0000\u0000\u0000\u0000\u0000\u0000\u0000\u0000\u0000\u0000\u0000\u0000\u0000\u0000",
        "\u0000\u0000\u0000\u0000\u0000\u0000\u0000\u0000\u0000\u0000\u0000\u0000\u0000\u0000\u0000\u0000",
        "\u0000\u0000\u0000\u0000\u0000\u0000\u0000\u0000\u0000\u0000\u0000\u0000\u0000\u0000",
        "\u0000\u0000\u0000\u0000\u0000\u0000\u0000\u0000\u0000\u0000\u0000\u0000\u0000\u0000",
        "\u0000\u0000\u0000\u0000\u0000\u0000\u0000\u0000\u0000\u0000\u0000\u0000\u0000\u0000",
        "\u0000\u0000\u0000\u0000\u0000\u0000\u0000\u0000\u0000\u0000\u0000\u0000\u0000\u0000",
        "\u0000\u0000\u0000\u0000\u0000\u0000\u0000\u0000\u0000\u0000\u0000\u0000\u0000\u0000",
        "\u0000\u0000\u0000\u0000\u0000\u0000\u0000\u0000\u0000\u0000\u0000\u0000\u0000\u0000",
        "\u0000\u0000\u0000\u0000\u0000\u0000\u0000\u0000\u0000\u0000\u0000\u0000\u0000\u0000",
        "\u0000\u0000\u0000\u0000\u0000\u0000\u0000\u0000\u0000\u0000\u0000\u0000\u0000\u0000",
        "\u0000\u0000\u0000\u0000\u0000\u0000\u0000\u0000\u0000\u0000\u0000\u0000\u0000\u0000",
        "\u0000\u0000\u0000\u0000\u0000\u0000\u0000\u0000\u0000\u0000\u0000\u0000\u0000\u0000",
        "\u0000\u0000\u0000\u0000\u0000\u0000\u0000\u0000\u0000\u0000\u0000\u0000\u0000\u0000",
        "\u0000\u0000\u0000\u0000\u0000\u0000\u0000\u0000\u0000\u0000\u0000\u0000\u0000\u0000",
        "\u0000\u0000\u0000\u0000\u0000\u0000\u0000\u0000\u0000\u0000\u0000\u0000\u0000\u0000",
        "\u0000\u0000\u0000\u0000\u0000\u0000\u0000\u0000\u0000\u0000\u0000\u0000\u0000\u0000",
        "\u0000\u0000\u0000\u0000\u0000\u0000\u0000\u0000\u0000\u0000\u0000\u0000\u0000\u0000",
        "\u0000\u0000\u0000\u0000\u0000\u0000\u0000\u0000\u0000\u0000\u0000\u0000\u0000\u0000",
        "\u0000\u0000\u0000\u0000\u0000\u0000\u0000\u0000\u0000\u0000\u0000\u0000\u0000\u0000",
        "\u0000\u0000\u0000\u0000\u0000\u0000\u0000\u0000\u0000\u0000\u0000\u0000\u0000\u0000",
        "\u0000\u0000\u0000\u0000\u0000\u0000\u0000\u0000\u0000\u0000\u0000\u0000\u0000\u0000",
        "\u0000\u0000\u0000\u0000\u0000\u0000\u0000\u0000\u0000\u0000\u0000\u0000\u0000\u0000",
        "\u0000\u0000\u0000\u0000\u0000\u0000\u0000\u0000\u0000\u0000\u0000\u0000\u0000\u0000",
        "\u0000\u0000\u0000\u0000\u0000\u0000\u0000\u0000\u0000\u0000\u0000\u0000\u0000\u0000",
        "\u0000\u0000\u0000\u0000\u0000\u0000\u0000\u0000\u0000\u0000\u0000\u0000\u0000\u0000",
        "\u0000\u0000\u0000\u0000\u0000\u0000\u0000\u0000\u0000\u0000\u0000\u0000\u0000\u0000",
        "\u0000\u0000\u0000\u0000\u0000\u0000\u0000\u0000\u0000\u0000\u0000\u0000\u0000\u0000",
        "\u0000\u0000\u0000\u0000\u0000\u0000\u0000\u0000\u0000\u0000\u0000\u0000\u0000\u0000",
        "\u0000\u0000\u0000\u0000\u0000\u0000\u0000\u0000\u0000\u0000\u0000\u0000\u0000\u0000",
        "\u0000\u0000\u0000\u0000\u0000\u0000\u0000\u0000\u0000\u0000\u0000\u0000\u0000\u0000",
        "\u0000\u0000\u0000\u0000\u0000\u0000\u0000\u0000\u0000\u0000\u0000\u0000\u0000\u0000",
        "\u0000\u0000\u0000\u0000\u0000\u0000\u0000\u0000\u0000\u0000\u0000\u0000\u0000\u0000",
        "\u0000\u0000\u0000\u0000\u0000\u0000\u0000\u0000\u0000\u0000\u0000\u0000\u0000\u0000",
        "\u0000\u0000\u0000\u0000\u0000\u0000\u0000\u0000\u0000\u0000\u0000\u0000\u0000\u0000",
        "\u0000\u0000\u0000\u0000\u0000\u0000\u0000\u0000\u0000\u0000\u0000\u0000\u0000\u0000",
        "\u0000\u0000\u0000\u0000\u0000\u0000\u0000\u0000\u0000\u0000\u0000\u0000\u0000\u0000",
        "\u0000\u0000\u0000\u0000\u0000\u0000\u0000\u0000\u0000\u0000\u0000\u0000\u0000\u0000",
        "\u0000\u0000\u0000\u0000\u0000\u0000\u0000\u0000\u0000\u0000\u0000\u0000\u0000\u0000",
        "\u0000\u0000\u0000\u0000\u0000\u0000\u0000\u0000\u0000\u0000\u0000\u0000\u0000\u0000",
        "\u0000\u0000\u0000\u0000\u0000\u0000\u0000\u0000\u0000\u0000\u0000\u0000\u0000\u0000",
        "\u0000\u0000\u0000\u0000\u0000\u0000\u0000\u0000\u0000\u0000\u0000\u0000\u0000\u0000",
        "\u0000\u0000\u0000\u0000\u0000\u0000\u0000\u0000\u0000\u0000\u0000\u0000\u0000\u0000",
        "\u0000\u0000\u0000\u0000\u0000\u0000\u0000\u0000\u0000\u0000\u0000\u0000\u0000\u0000",
        "\u0000\u0000\u0000\u0000\u0000\u0000\u0000\u0000\u0000\u0000\u0000\u0000\u0000\u0000",
        "\u0000\u0000\u0000\u0000\u0000\u0000\u0000\u0000\u0000\u0000\u0000\u0000",
        "\u0000\u0000\u0000\u0000\u0000\u0000\u0000\u0000\u0000\u0000\u0000\u0000\u0000\u0000",
        "\u0000\u0000\u0000\u0000\u0000\u0000\u0000\u0000\u0000\u0000\u0000\u0000\u0000\u0000",
        "\u0000\u0000\u0000\u0000\u0000\u0000\u0000\u0000\u0000\u0000",
        "\u0000\u0000\u0000\u0000\u0000\u0000\u0000\u0000",
        "\u0000\u0000\u0000\u0000\u0000\u0000\u0000\u0000",
        "\u0000\u0000\u0000\u0000\u0000\u0000\u0000\u0000",
        "\u0000\u0000\u0000\u0000\u0000\u0000\u0000\u0000",
        "\u0000\u0000\u0000\u0000\u0000\u0000\u0000\u0000",
        "\u0000\u0000\u0000\u0000\u0000\u0000\u0000\u0000",
        "\u0000\u0000\u0000\u0000\u0000\u0000\u0000\u0000",
        "\u0000\u0000\u0000\u0000\u0000\u0000\u0000\u0000",
        "\u0000\u0000\u0000\u0000\u0000\u0000\u0000\u0000",
        "\u0000\u0000\u0000\u0000\u0000\u0000\u0000\u0000",
        "\u0000\u0000\u0000\u0000\u0000\u0000\u0000\u0000",
        "\u0000\u0000\u0000\u0000\u0000\u0000\u0000\u0000",
        "\u0000\u0000\u0000\u0000\u0000\u0000\u0000\u0000",
        "\u0000\u0000\u0000\u0000\u0000\u0000\u0000\u0000",
        "\u0000\u0000\u0000\u0000\u0000\u0000\u0000\u0000",
        "\u0000\u0000\u0000\u0000\u0000\u0000\u0000\u0000",
        "\u0000\u0000\u0000\u0000\u0000\u0000\u0000\u0000",
        "\u0000\u0000\u0000\u0000\u0000\u0000\u0000\u0000",
        "\u0000\u0000\u0000\u0000\u0000\u0000\u0000\u0000",
        "\u0000\u0000\u0000\u0000\u0000\u0000\u0000\u0000",
        "\u0000\u0000\u0000\u0000\u0000\u0000\u0000\u0000",
        "\u0000\u0000\u0000\u0000\u0000\u0000\u0000\u0000",
        "\u0000\u0000\u0000\u0000\u0000\u0000\u0000\u0000",
        "\u0000\u0000\u0000\u0000\u0000\u0000\u0000\u0000",
        "\u0000\u0000\u0000\u0000\u0000\u0000\u0000\u0000",
        "\u0000\u0000\u0000\u0000\u0000\u0000\u0000\u0000",
        "\u0000\u0000\u0000\u0000\u0000\u0000\u0000\u0000",
        "\u0000\u0000\u0000\u0000\u0000\u0000\u0000\u0000",
        "\u0000\u0000\u0000\u0000\u0000\u0000\u0000\u0000",
        "\u0000\u0000\u0000\u0000\u0000\u0000\u0000\u0000",
        "\u0000\u0000\u0000\u0000\u0000\u0000\u0000\u0000",
        "\u0000\u0000\u0000\u0000\u0000\u0000\u0000\u0000",
        "\u0000\u0000\u0000\u0000\u0000\u0000\u0000\u0000",
        "\u0000\u0000\u0000\u0000\u0000\u0000\u0000\u0000",
        "\u0000\u0000\u0000\u0000\u0000\u0000\u0000\u0000",
        "\u0000\u0000\u0000\u0000\u0000\u0000\u0000\u0000",
        "\u0000\u0000\u0000\u0000\u0000\u0000\u0000\u0000",
        "\u0000\u0000\u0000\u0000\u0000\u0000\u0000\u0000",
        "\u0000\u0000\u0000\u0000\u0000\u0000\u0000\u0000",
        "\u0000\u0000\u0000\u0000\u0000\u0000\u0000\u0000",
        "\u0000\u0000\u0000\u0000\u0000\u0000\u0000\u0000",
        "\u0000\u0000\u0000\u0000\u0000\u0000\u0000\u0000",
        "\u0000\u0000\u0000\u0000\u0000\u0000\u0000\u0000",
        "\u0000\u0000\u0000\u0000\u0000\u0000\u0000\u0000",
        "\u0000\u0000\u0000\u0000\u0000\u0000\u0000\u0000",
        "\u0000\u0000\u0000\u0000\u0000\u0000\u0000\u0000",
