{
  "AcquisitionMatrixPE": 70,
  "AcquisitionNumber": 1,
  "AcquisitionTime": "12:03:58.455000",
  "BandwidthPerPixelPhaseEncode": 51.948,
  "BaseResolution": 70,
  "BodyPartExamined": "HEAD",
  "CoilCombinationMethod": "Sum of Squares",
  "ConsistencyInfo": "N4_VE11C_LATEST_20160120",
  "ConversionSoftware": "dcm2niix",
  "ConversionSoftwareVersion": "v1.0.20220720",
  "DerivedVendorReportedEchoSpacing": 0.000550001,
  "DeviceSerialNumber": "66061",
  "DwellTime": 3.3e-06,
  "EchoTime": 0.022,
  "EchoTrainLength": 35,
  "EffectiveEchoSpacing": 0.000275,
  "FlipAngle": 90,
  "HeudiconvVersion": "1.1.1",
  "ImageOrientationPatientDICOM": [0.999574, 0.00740791, 0.0282298, -0.00122123, 0.97702, -0.213143],
  "ImageOrientationText": "Tra>Cor(-12.3)>Sag(1.7)",
  "ImageType": [
    "ORIGINAL",
    "PRIMARY",
    "M",
    "ND",
    "NORM",
    "MOSAIC"
],
  "ImagingFrequency": 123.254,
  "InPlanePhaseEncodingDirectionDICOM": "COL",
  "InstitutionAddress": "Street StreetNo,City/1c4204/,District,KR,ZIP",
  "InstitutionName": "SKKU",
  "InstitutionalDepartmentName": "Department",
  "MRAcquisitionType": "2D",
  "MagneticFieldStrength": 3,
  "Manufacturer": "Siemens",
  "ManufacturersModelName": "Prisma",
  "MatrixCoilMode": "GRAPPA",
  "Modality": "MR",
  "NonlinearGradientCorrection": false,
  "ParallelReductionFactorInPlane": 2,
  "PartialFourier": 1,
  "PatientPosition": "HFS",
  "PercentPhaseFOV": 100,
  "PercentSampling": 100,
  "PhaseEncodingDirection": "j-",
  "PhaseEncodingSteps": 70,
  "PhaseResolution": 1,
  "PixelBandwidth": 2165,
  "ProcedureStepDescription": "Head^PI:Others",
  "ProtocolName": "BOLD_ep2d_3x3x3_dimension1",
  "PulseSequenceDetails": "%SiemensSeq%\\ep2d_pace",
  "ReceiveCoilActiveElements": "HC1-7",
  "ReceiveCoilName": "HeadNeck_64",
  "ReconMatrixPE": 70,
  "RefLinesPE": 24,
  "RepetitionTime": 2,
  "SAR": 0.135635,
  "ScanOptions": "FS",
  "ScanningSequence": "EP",
  "SequenceName": "*epfid2d1_70",
  "SequenceVariant": "SK",
  "SeriesDescription": "BOLD_ep2d_3x3x3_dimension1",
  "SeriesNumber": 6,
  "ShimSetting": [5030, 3761, 4469, 303, -166, 73, -62, 58],
  "SliceThickness": 3,
  "SliceTiming": [0.99, 0, 1.035, 0.0475, 1.0825, 0.0925, 1.13, 0.14, 1.1775, 0.1875, 1.225, 0.235, 1.2725, 0.2825, 1.32, 0.33, 1.365, 0.375, 1.4125, 0.4225, 1.46, 0.47, 1.5075, 0.5175, 1.555, 0.565, 1.6025, 0.6125, 1.65, 0.66, 1.695, 0.705, 1.7425, 0.7525, 1.79, 0.8, 1.8375, 0.8475, 1.885, 0.895, 1.9325, 0.9425],
  "SoftwareVersions": "syngo MR E11",
  "SpacingBetweenSlices": 3,
  "StationName": "AWP66061",
  "TaskName": "dimension",
  "TotalReadoutTime": 0.018975,
  "TxRefAmp": 234.551,
  "dcmmeta_affine": [
    [-2.9987220764160156, -0.00366368074901402, 0.08748002350330353, 107.49411010742188],
    [-0.022223738953471184, 2.931060791015625, -0.63905268907547, -87.5755386352539],
    [0.08468932658433914, 0.6394284963607788, 2.9298393726348877, -64.20186614990234],
    [0.0, 0.0, 0.0, 1.0]
],
  "dcmmeta_reorient_transform": [
    [0.0, -1.0, 0.0, 69.0],
    [1.0, 0.0, 0.0, 0.0],
    [0.0, 0.0, -1.0, 41.0],
    [0.0, 0.0, 0.0, 1.0]
],
  "dcmmeta_shape": [70, 70, 42, 437],
  "dcmmeta_slice_dim": 2,
  "dcmmeta_version": 0.6,
  "global": {
    "const": {
      "AcquisitionMatrix": [70, 0, 0, 70],
      "AngioFlag": "N",
      "BitsAllocated": 16,
      "BitsStored": 12,
      "BodyPartExamined": "HEAD",
      "Columns": 490,
      "EchoNumbers": 1,
      "EchoTime": 22.0,
      "EchoTrainLength": 35,
      "FlipAngle": 90.0,
      "HighBit": 11,
      "ImageOrientationPatient": [0.99957401054598, 0.00740791291341, 0.028229776253, -0.0012212268889, 0.9770202866561, -0.2131428348956],
      "ImagePositionPatient": [-739.79024727806, -708.65626724908, 216.53734169359],
      "ImageType": [
        "ORIGINAL",
        "PRIMARY",
        "M",
        "ND",
        "NORM",
        "MOSAIC"
],
      "ImagedNucleus": "1H",
      "ImagingFrequency": 123.25445,
      "InPlanePhaseEncodingDirection": "COL",
      "MRAcquisitionType": "2D",
      "MagneticFieldStrength": 3.0,
      "Manufacturer": "SIEMENS",
      "ManufacturerModelName": "Prisma",
      "Modality": "MR",
      "NumberOfAverages": 1.0,
      "NumberOfPhaseEncodingSteps": 70,
      "PercentPhaseFieldOfView": 100.0,
      "PercentSampling": 100.0,
      "PerformedProcedureStepStartTime": "112941.830000",
      "PhotometricInterpretation": "MONOCHROME2",
      "PixelBandwidth": 2165.0,
      "PixelRepresentation": 0,
      "PixelSpacing": [3.0, 3.0],
      "ProtocolName": "BOLD_ep2d_3x3x3_dimension1",
      "RepetitionTime": 2000.0,
      "Rows": 490,
      "SAR": 0.13563456619104,
      "SamplesPerPixel": 1,
      "ScanOptions": "FS",
      "ScanningSequence": "EP",
      "SequenceName": "*epfid2d1_70",
      "SequenceVariant": "SK",
      "SeriesDescription": "BOLD_ep2d_3x3x3_dimension1",
      "SeriesNumber": 6,
      "SeriesTime": "120453.274000",
      "SliceLocation": 82.089269672243,
      "SliceThickness": 3.0,
      "SmallestImagePixelValue": 0,
      "SoftwareVersions": "syngo MR E11",
      "SpacingBetweenSlices": 3.0000000316076,
      "SpecificCharacterSet": "ISO_IR 100",
      "StudyID": "1",
      "StudyTime": "112941.765000",
      "TransmitCoilName": "Body",
      "VariableFlipAngleFlag": "N",
      "WindowCenterWidthExplanation": "Algo1",
      "dBdt": 0.0},
    "slices": {}
  },
  "time": {
    "samples": {
      "AcquisitionNumber": [1, 2, 3, 4, 5, 6, 7, 8, 9, 10, 11, 12, 13, 14, 15, 16, 17, 18, 19, 20, 21, 22, 23, 24, 25, 26, 27, 28, 29, 30, 31, 32, 33, 34, 35, 36, 37, 38, 39, 40, 41, 42, 43, 44, 45, 46, 47, 48, 49, 50, 51, 52, 53, 54, 55, 56, 57, 58, 59, 60, 61, 62, 63, 64, 65, 66, 67, 68, 69, 70, 71, 72, 73, 74, 75, 76, 77, 78, 79, 80, 81, 82, 83, 84, 85, 86, 87, 88, 89, 90, 91, 92, 93, 94, 95, 96, 97, 98, 99, 100, 101, 102, 103, 104, 105, 106, 107, 108, 109, 110, 111, 112, 113, 114, 115, 116, 117, 118, 119, 120, 121, 122, 123, 124, 125, 126, 127, 128, 129, 130, 131, 132, 133, 134, 135, 136, 137, 138, 139, 140, 141, 142, 143, 144, 145, 146, 147, 148, 149, 150, 151, 152, 153, 154, 155, 156, 157, 158, 159, 160, 161, 162, 163, 164, 165, 166, 167, 168, 169, 170, 171, 172, 173, 174, 175, 176, 177, 178, 179, 180, 181, 182, 183, 184, 185, 186, 187, 188, 189, 190, 191, 192, 193, 194, 195, 196, 197, 198, 199, 200, 201, 202, 203, 204, 205, 206, 207, 208, 209, 210, 211, 212, 213, 214, 215, 216, 217, 218, 219, 220, 221, 222, 223, 224, 225, 226, 227, 228, 229, 230, 231, 232, 233, 234, 235, 236, 237, 238, 239, 240, 241, 242, 243, 244, 245, 246, 247, 248, 249, 250, 251, 252, 253, 254, 255, 256, 257, 258, 259, 260, 261, 262, 263, 264, 265, 266, 267, 268, 269, 270, 271, 272, 273, 274, 275, 276, 277, 278, 279, 280, 281, 282, 283, 284, 285, 286, 287, 288, 289, 290, 291, 292, 293, 294, 295, 296, 297, 298, 299, 300, 301, 302, 303, 304, 305, 306, 307, 308, 309, 310, 311, 312, 313, 314, 315, 316, 317, 318, 319, 320, 321, 322, 323, 324, 325, 326, 327, 328, 329, 330, 331, 332, 333, 334, 335, 336, 337, 338, 339, 340, 341, 342, 343, 344, 345, 346, 347, 348, 349, 350, 351, 352, 353, 354, 355, 356, 357, 358, 359, 360, 361, 362, 363, 364, 365, 366, 367, 368, 369, 370, 371, 372, 373, 374, 375, 376, 377, 378, 379, 380, 381, 382, 383, 384, 385, 386, 387, 388, 389, 390, 391, 392, 393, 394, 395, 396, 397, 398, 399, 400, 401, 402, 403, 404, 405, 406, 407, 408, 409, 410, 411, 412, 413, 414, 415, 416, 417, 418, 419, 420, 421, 422, 423, 424, 425, 426, 427, 428, 429, 430, 431, 432, 433, 434, 435, 436, 437],
      "AcquisitionTime": ["120358.455000", "120400.455000", "120402.455000", "120404.455000", "120406.455000", "120408.455000", "120410.455000", "120412.455000", "120414.455000", "120416.455000", "120418.455000", "120420.455000", "120422.455000", "120424.455000", "120426.455000", "120428.455000", "120430.455000", "120432.455000", "120434.455000", "120436.455000", "120438.455000", "120440.455000", "120442.455000", "120444.455000", "120446.455000", "120448.455000", "120450.455000", "120452.455000", "120454.455000", "120456.455000", "120458.455000", "120500.455000", "120502.455000", "120504.455000", "120506.455000", "120508.455000", "120510.455000", "120512.455000", "120514.455000", "120516.455000", "120518.455000", "120520.455000", "120522.455000", "120524.455000", "120526.455000", "120528.455000", "120530.455000", "120532.455000", "120534.455000", "120536.455000", "120538.455000", "120540.455000", "120542.455000", "120544.455000", "120546.455000", "120548.455000", "120550.455000", "120552.455000", "120554.455000", "120556.455000", "120558.455000", "120600.455000", "120602.455000", "120604.455000", "120606.455000", "120608.455000", "120610.455000", "120612.455000", "120614.455000", "120616.455000", "120618.455000", "120620.455000", "120622.455000", "120624.455000", "120626.455000", "120628.455000", "120630.455000", "120632.455000", "120634.455000", "120636.455000", "120638.455000", "120640.455000", "120642.455000", "120644.455000", "120646.455000", "120648.455000", "120650.455000", "120652.455000", "120654.455000", "120656.455000", "120658.455000", "120700.455000", "120702.455000", "120704.455000", "120706.455000", "120708.455000", "120710.455000", "120712.455000", "120714.455000", "120716.455000", "120718.455000", "120720.455000", "120722.455000", "120724.455000", "120726.455000", "120728.455000", "120730.455000", "120732.455000", "120734.455000", "120736.455000", "120738.455000", "120740.455000", "120742.455000", "120744.455000", "120746.455000", "120748.455000", "120750.455000", "120752.455000", "120754.455000", "120756.455000", "120758.455000", "120800.455000", "120802.455000", "120804.455000", "120806.455000", "120808.455000", "120810.455000", "120812.455000", "120814.455000", "120816.455000", "120818.455000", "120820.455000", "120822.455000", "120824.455000", "120826.455000", "120828.455000", "120830.455000", "120832.455000", "120834.455000", "120836.455000", "120838.455000", "120840.455000", "120842.455000", "120844.455000", "120846.455000", "120848.455000", "120850.455000", "120852.455000", "120854.455000", "120856.455000", "120858.455000", "120900.455000", "120902.455000", "120904.455000", "120906.455000", "120908.455000", "120910.455000", "120912.455000", "120914.455000", "120916.455000", "120918.455000", "120920.455000", "120922.455000", "120924.455000", "120926.455000", "120928.455000", "120930.455000", "120932.455000", "120934.455000", "120936.455000", "120938.455000", "120940.455000", "120942.455000", "120944.455000", "120946.455000", "120948.455000", "120950.455000", "120952.455000", "120954.455000", "120956.455000", "120958.455000", "121000.455000", "121002.455000", "121004.455000", "121006.455000", "121008.455000", "121010.455000", "121012.455000", "121014.455000", "121016.455000", "121018.455000", "121020.455000", "121022.455000", "121024.455000", "121026.455000", "121028.455000", "121030.455000", "121032.455000", "121034.455000", "121036.455000", "121038.455000", "121040.455000", "121042.455000", "121044.455000", "121046.455000", "121048.455000", "121050.455000", "121052.455000", "121054.455000", "121056.455000", "121058.455000", "121100.455000", "121102.455000", "121104.455000", "121106.455000", "121108.455000", "121110.455000", "121112.455000", "121114.455000", "121116.455000", "121118.455000", "121120.455000", "121122.455000", "121124.455000", "121126.455000", "121128.455000", "121130.455000", "121132.455000", "121134.455000", "121136.455000", "121138.455000", "121140.455000", "121142.455000", "121144.455000", "121146.455000", "121148.455000", "121150.455000", "121152.455000", "121154.455000", "121156.455000", "121158.455000", "121200.455000", "121202.455000", "121204.455000", "121206.455000", "121208.455000", "121210.455000", "121212.455000", "121214.455000", "121216.455000", "121218.455000", "121220.455000", "121222.455000", "121224.455000", "121226.455000", "121228.455000", "121230.455000", "121232.455000", "121234.455000", "121236.455000", "121238.455000", "121240.455000", "121242.455000", "121244.455000", "121246.455000", "121248.455000", "121250.455000", "121252.455000", "121254.455000", "121256.455000", "121258.455000", "121300.455000", "121302.455000", "121304.455000", "121306.455000", "121308.455000", "121310.455000", "121312.455000", "121314.455000", "121316.455000", "121318.455000", "121320.455000", "121322.455000", "121324.455000", "121326.455000", "121328.455000", "121330.455000", "121332.455000", "121334.455000", "121336.455000", "121338.455000", "121340.455000", "121342.455000", "121344.455000", "121346.455000", "121348.455000", "121350.455000", "121352.455000", "121354.455000", "121356.455000", "121358.455000", "121400.455000", "121402.455000", "121404.455000", "121406.455000", "121408.455000", "121410.455000", "121412.455000", "121414.455000", "121416.455000", "121418.455000", "121420.455000", "121422.455000", "121424.455000", "121426.455000", "121428.455000", "121430.455000", "121432.455000", "121434.455000", "121436.455000", "121438.455000", "121440.455000", "121442.455000", "121444.455000", "121446.455000", "121448.455000", "121450.455000", "121452.455000", "121454.455000", "121456.455000", "121458.455000", "121500.455000", "121502.455000", "121504.455000", "121506.455000", "121508.455000", "121510.455000", "121512.455000", "121514.455000", "121516.455000", "121518.455000", "121520.455000", "121522.455000", "121524.455000", "121526.455000", "121528.455000", "121530.455000", "121532.455000", "121534.455000", "121536.455000", "121538.455000", "121540.455000", "121542.455000", "121544.455000", "121546.455000", "121548.455000", "121550.455000", "121552.455000", "121554.455000", "121556.455000", "121558.455000", "121600.455000", "121602.455000", "121604.455000", "121606.455000", "121608.455000", "121610.455000", "121612.455000", "121614.455000", "121616.455000", "121618.455000", "121620.455000", "121622.455000", "121624.455000", "121626.455000", "121628.455000", "121630.455000", "121632.455000", "121634.455000", "121636.455000", "121638.455000", "121640.455000", "121642.455000", "121644.455000", "121646.455000", "121648.455000", "121650.455000", "121652.455000", "121654.455000", "121656.455000", "121658.455000", "121700.455000", "121702.455000", "121704.455000", "121706.455000", "121708.455000", "121710.455000", "121712.455000", "121714.455000", "121716.455000", "121718.455000", "121720.455000", "121722.455000", "121724.455000", "121726.455000", "121728.455000", "121730.455000", "121732.455000", "121734.455000", "121736.455000", "121738.455000", "121740.455000", "121742.455000", "121744.455000", "121746.455000", "121748.455000", "121750.455000", "121752.455000", "121754.455000", "121756.455000", "121758.455000", "121800.455000", "121802.455000", "121804.455000", "121806.455000", "121808.455000", "121810.455000", "121812.455000", "121814.455000", "121816.455000", "121818.455000", "121820.455000", "121822.455000", "121824.455000", "121826.455000", "121828.455000", "121830.455000"],
      "ContentTime": ["120453.277000", "120453.281000", "120453.284000", "120453.298000", "120453.304000", "120453.307000", "120453.317000", "120453.320000", "120453.323000", "120453.325000", "120453.328000", "120453.331000", "120453.333000", "120453.336000", "120453.339000", "120453.341000", "120453.344000", "120453.347000", "120453.350000", "120453.352000", "120453.355000", "120453.358000", "120453.360000", "120453.363000", "120453.366000", "120453.369000", "120453.371000", "120533.272000", "120533.275000", "120533.277000", "120533.280000", "120533.283000", "120533.285000", "120533.288000", "120533.298000", "120533.301000", "120533.304000", "120533.307000", "120533.309000", "120533.312000", "120533.315000", "120533.317000", "120533.320000", "120533.323000", "120533.325000", "120533.328000", "120533.331000", "120613.273000", "120613.276000", "120613.278000", "120613.281000", "120613.284000", "120613.287000", "120613.289000", "120613.292000", "120613.295000", "120613.297000", "120613.300000", "120613.303000", "120613.305000", "120613.308000", "120613.311000", "120613.314000", "120613.316000", "120613.319000", "120613.322000", "120613.332000", "120633.273000", "120633.283000", "120633.286000", "120633.289000", "120633.291000", "120633.294000", "120633.297000", "120633.300000", "120633.302000", "120633.305000", "120713.273000", "120713.276000", "120713.278000", "120713.281000", "120713.284000", "120713.287000", "120713.289000", "120713.292000", "120713.295000", "120713.297000", "120713.300000", "120713.303000", "120713.306000", "120713.308000", "120713.311000", "120713.314000", "120713.317000", "120713.319000", "120713.322000", "120713.325000", "120753.272000", "120753.275000", "120753.277000", "120753.280000", "120753.283000", "120753.286000", "120753.288000", "120753.291000", "120753.294000", "120753.297000", "120753.299000", "120753.302000", "120753.305000", "120753.307000", "120753.310000", "120753.313000", "120753.316000", "120753.324000", "120753.327000", "120753.330000", "120833.273000", "120833.276000", "120833.278000", "120833.281000", "120833.284000", "120833.287000", "120833.289000", "120833.292000", "120833.295000", "120833.298000", "120833.300000", "120833.303000", "120833.306000", "120833.309000", "120833.312000", "120833.314000", "120833.317000", "120833.320000", "120833.323000", "120833.325000", "120913.273000", "120913.276000", "120913.278000", "120913.281000", "120913.284000", "120913.287000", "120913.289000", "120913.292000", "120913.295000", "120913.297000", "120913.300000", "120913.303000", "120913.306000", "120913.308000", "120913.311000", "120913.314000", "120913.317000", "120913.319000", "120913.322000", "120913.325000", "120953.272000", "120953.275000", "120953.277000", "120953.280000", "120953.283000", "120953.286000", "120953.289000", "120953.291000", "120953.294000", "120953.297000", "120953.300000", "120953.302000", "120953.305000", "120953.308000", "120953.311000", "120953.314000", "120953.316000", "120953.319000", "120953.322000", "120953.325000", "121033.272000", "121033.281000", "121033.287000", "121033.290000", "121033.298000", "121033.302000", "121033.304000", "121033.310000", "121033.313000", "121033.316000", "121033.319000", "121033.321000", "121033.324000", "121033.327000", "121033.329000", "121033.332000", "121033.335000", "121033.338000", "121033.341000", "121033.343000", "121113.273000", "121113.276000", "121113.279000", "121113.281000", "121113.284000", "121113.287000", "121113.290000", "121113.293000", "121113.295000", "121113.298000", "121113.301000", "121113.304000", "121113.306000", "121113.309000", "121113.312000", "121113.315000", "121113.318000", "121113.320000", "121113.323000", "121113.326000", "121153.273000", "121153.276000", "121153.279000", "121153.281000", "121153.284000", "121153.287000", "121153.290000", "121153.292000", "121153.295000", "121153.298000", "121153.301000", "121153.304000", "121153.307000", "121153.309000", "121153.312000", "121153.315000", "121153.318000", "121153.320000", "121153.323000", "121153.326000", "121233.272000", "121233.275000", "121233.278000", "121233.280000", "121233.283000", "121233.286000", "121233.289000", "121233.292000", "121233.294000", "121233.297000", "121233.300000", "121233.303000", "121233.305000", "121233.308000", "121233.311000", "121233.314000", "121233.316000", "121233.319000", "121233.322000", "121233.325000", "121313.273000", "121313.276000", "121313.279000", "121313.281000", "121313.284000", "121313.287000", "121313.290000", "121313.293000", "121313.295000", "121313.298000", "121313.301000", "121313.304000", "121313.306000", "121313.309000", "121313.312000", "121313.315000", "121313.318000", "121313.320000", "121313.323000", "121313.326000", "121353.273000", "121353.276000", "121353.279000", "121353.281000", "121353.284000", "121353.287000", "121353.290000", "121353.293000", "121353.295000", "121353.298000", "121353.301000", "121353.304000", "121353.306000", "121353.309000", "121353.312000", "121353.315000", "121353.317000", "121353.320000", "121353.323000", "121353.326000", "121433.272000", "121433.275000", "121433.278000", "121433.281000", "121433.283000", "121433.286000", "121433.289000", "121433.292000", "121433.294000", "121433.305000", "121433.308000", "121433.311000", "121433.314000", "121433.317000", "121433.320000", "121433.322000", "121433.325000", "121433.328000", "121433.331000", "121433.333000", "121513.272000", "121513.275000", "121513.278000", "121513.281000", "121513.283000", "121513.286000", "121513.289000", "121513.292000", "121513.295000", "121513.297000", "121513.300000", "121513.303000", "121513.306000", "121513.309000", "121513.312000", "121513.314000", "121513.317000", "121513.320000", "121513.323000", "121513.325000", "121553.273000", "121553.276000", "121553.279000", "121553.282000", "121553.284000", "121553.287000", "121553.290000", "121553.293000", "121553.295000", "121553.298000", "121553.301000", "121553.304000", "121553.306000", "121553.309000", "121553.312000", "121553.315000", "121553.317000", "121553.320000", "121553.323000", "121553.326000", "121633.273000", "121633.276000", "121633.279000", "121633.282000", "121633.284000", "121633.295000", "121633.298000", "121633.301000", "121633.304000", "121633.307000", "121633.309000", "121633.312000", "121633.315000", "121633.318000", "121633.320000", "121633.323000", "121633.326000", "121633.329000", "121633.331000", "121633.334000", "121713.272000", "121713.275000", "121713.278000", "121713.280000", "121713.283000", "121713.286000", "121713.289000", "121713.292000", "121713.295000", "121713.297000", "121713.300000", "121713.303000", "121713.306000", "121713.309000", "121713.312000", "121713.315000", "121713.318000", "121713.320000", "121713.323000", "121713.326000", "121753.273000", "121753.276000", "121753.278000", "121753.281000", "121753.284000", "121753.287000", "121753.290000", "121753.293000", "121753.295000", "121753.298000", "121753.301000", "121753.304000", "121753.306000", "121753.309000", "121753.312000", "121753.315000", "121753.318000", "121753.320000", "121753.323000", "121753.326000", "121831.677000", "121831.680000", "121831.683000", "121831.686000", "121831.689000", "121831.691000", "121831.694000", "121831.697000", "121831.700000", "121831.703000", "121831.705000", "121831.708000", "121831.711000", "121831.714000", "121831.716000", "121831.719000", "121831.722000", "121831.725000", "121831.727000", "121831.730000"],
      "DataSetTrailingPadding": [
        "\u0000\u0000\u0000\u0000\u0000\u0000\u0000\u0000\u0000\u0000",
        "\u0000\u0000\u0000\u0000\u0000\u0000\u0000\u0000\u0000\u0000\u0000\u0000",
        "\u0000\u0000\u0000\u0000\u0000\u0000\u0000\u0000\u0000\u0000\u0000\u0000",
        "\u0000\u0000\u0000\u0000\u0000\u0000\u0000\u0000\u0000\u0000\u0000\u0000",
        "\u0000\u0000\u0000\u0000\u0000\u0000\u0000\u0000\u0000\u0000",
        "\u0000\u0000\u0000\u0000\u0000\u0000\u0000\u0000\u0000\u0000",
        "\u0000\u0000\u0000\u0000\u0000\u0000\u0000\u0000\u0000\u0000",
        "\u0000\u0000\u0000\u0000\u0000\u0000\u0000\u0000\u0000\u0000",
        "\u0000\u0000\u0000\u0000\u0000\u0000\u0000\u0000\u0000\u0000",
        "\u0000\u0000\u0000\u0000\u0000\u0000\u0000\u0000\u0000\u0000",
        "\u0000\u0000\u0000\u0000\u0000\u0000\u0000\u0000\u0000\u0000",
        "\u0000\u0000\u0000\u0000\u0000\u0000\u0000\u0000\u0000\u0000",
        "\u0000\u0000\u0000\u0000\u0000\u0000\u0000\u0000\u0000\u0000",
        "\u0000\u0000\u0000\u0000\u0000\u0000\u0000\u0000\u0000\u0000",
        "\u0000\u0000\u0000\u0000\u0000\u0000\u0000\u0000\u0000\u0000",
        "\u0000\u0000\u0000\u0000\u0000\u0000\u0000\u0000\u0000\u0000",
        "\u0000\u0000\u0000\u0000\u0000\u0000\u0000\u0000\u0000\u0000",
        "\u0000\u0000\u0000\u0000\u0000\u0000\u0000\u0000\u0000\u0000",
        "\u0000\u0000\u0000\u0000\u0000\u0000\u0000\u0000\u0000\u0000",
        "\u0000\u0000\u0000\u0000\u0000\u0000\u0000\u0000\u0000\u0000",
        "\u0000\u0000\u0000\u0000\u0000\u0000\u0000\u0000\u0000\u0000",
        "\u0000\u0000\u0000\u0000\u0000\u0000\u0000\u0000\u0000\u0000",
        "\u0000\u0000\u0000\u0000\u0000\u0000\u0000\u0000\u0000\u0000",
        "\u0000\u0000\u0000\u0000\u0000\u0000\u0000\u0000\u0000\u0000",
        "\u0000\u0000\u0000\u0000\u0000\u0000\u0000\u0000\u0000\u0000",
        "\u0000\u0000\u0000\u0000\u0000\u0000\u0000\u0000\u0000\u0000",
        "\u0000\u0000\u0000\u0000\u0000\u0000\u0000\u0000\u0000\u0000",
        "\u0000\u0000\u0000\u0000\u0000\u0000\u0000\u0000\u0000\u0000",
        "\u0000\u0000\u0000\u0000\u0000\u0000\u0000\u0000\u0000\u0000",
        "\u0000\u0000\u0000\u0000\u0000\u0000\u0000\u0000\u0000\u0000",
        "\u0000\u0000\u0000\u0000\u0000\u0000\u0000\u0000\u0000\u0000",
        "\u0000\u0000\u0000\u0000\u0000\u0000\u0000\u0000\u0000\u0000",
        "\u0000\u0000\u0000\u0000\u0000\u0000\u0000\u0000\u0000\u0000",
        "\u0000\u0000\u0000\u0000\u0000\u0000\u0000\u0000\u0000\u0000",
        "\u0000\u0000\u0000\u0000\u0000\u0000\u0000\u0000\u0000\u0000",
        "\u0000\u0000\u0000\u0000\u0000\u0000\u0000\u0000\u0000\u0000",
        "\u0000\u0000\u0000\u0000\u0000\u0000\u0000\u0000\u0000\u0000",
        "\u0000\u0000\u0000\u0000\u0000\u0000\u0000\u0000\u0000\u0000",
        "\u0000\u0000\u0000\u0000\u0000\u0000\u0000\u0000\u0000\u0000",
        "\u0000\u0000\u0000\u0000\u0000\u0000\u0000\u0000\u0000\u0000",
        "\u0000\u0000\u0000\u0000\u0000\u0000\u0000\u0000\u0000\u0000",
        "\u0000\u0000\u0000\u0000\u0000\u0000\u0000\u0000\u0000\u0000",
        "\u0000\u0000\u0000\u0000\u0000\u0000\u0000\u0000\u0000\u0000",
        "\u0000\u0000\u0000\u0000\u0000\u0000\u0000\u0000\u0000\u0000",
        "\u0000\u0000\u0000\u0000\u0000\u0000\u0000\u0000\u0000\u0000",
        "\u0000\u0000\u0000\u0000\u0000\u0000\u0000\u0000\u0000\u0000",
        "\u0000\u0000\u0000\u0000\u0000\u0000\u0000\u0000\u0000\u0000",
        "\u0000\u0000\u0000\u0000\u0000\u0000\u0000\u0000\u0000\u0000",
        "\u0000\u0000\u0000\u0000\u0000\u0000\u0000\u0000\u0000\u0000",
        "\u0000\u0000\u0000\u0000\u0000\u0000",
        "\u0000\u0000\u0000\u0000\u0000\u0000",
        "\u0000\u0000\u0000\u0000\u0000\u0000",
        "\u0000\u0000\u0000\u0000\u0000\u0000",
        "\u0000\u0000\u0000\u0000\u0000\u0000",
        "\u0000\u0000\u0000\u0000\u0000\u0000",
        "\u0000\u0000\u0000\u0000\u0000\u0000",
        "\u0000\u0000\u0000\u0000\u0000\u0000",
        "\u0000\u0000\u0000\u0000\u0000\u0000",
        "\u0000\u0000\u0000\u0000\u0000\u0000",
        "\u0000\u0000\u0000\u0000\u0000\u0000",
        "\u0000\u0000\u0000\u0000\u0000\u0000",
        "\u0000\u0000\u0000\u0000\u0000\u0000",
        "\u0000\u0000\u0000\u0000\u0000\u0000",
        "\u0000\u0000\u0000\u0000\u0000\u0000",
        "\u0000\u0000\u0000\u0000\u0000\u0000",
        "\u0000\u0000\u0000\u0000\u0000\u0000",
        "\u0000\u0000\u0000\u0000\u0000\u0000",
        "\u0000\u0000\u0000\u0000\u0000\u0000",
        "\u0000\u0000\u0000\u0000\u0000\u0000",
        "\u0000\u0000\u0000\u0000\u0000\u0000",
        "\u0000\u0000\u0000\u0000\u0000\u0000",
        "\u0000\u0000\u0000\u0000\u0000\u0000",
        "\u0000\u0000\u0000\u0000\u0000\u0000",
        "\u0000\u0000\u0000\u0000\u0000\u0000",
        "\u0000\u0000\u0000\u0000",
        "\u0000\u0000\u0000\u0000\u0000\u0000",
        "\u0000\u0000\u0000\u0000\u0000\u0000",
        "\u0000\u0000\u0000\u0000",
        "\u0000\u0000\u0000\u0000\u0000\u0000",
        "\u0000\u0000\u0000\u0000\u0000\u0000",
        "\u0000\u0000\u0000\u0000\u0000\u0000",
        "\u0000\u0000\u0000\u0000\u0000\u0000",
        "\u0000\u0000\u0000\u0000",
        "\u0000\u0000\u0000\u0000",
        "\u0000\u0000\u0000\u0000\u0000\u0000",
        "\u0000\u0000\u0000\u0000\u0000\u0000",
        "\u0000\u0000\u0000\u0000",
        "\u0000\u0000\u0000\u0000",
        "\u0000\u0000\u0000\u0000",
        "\u0000\u0000\u0000\u0000",
        "\u0000\u0000\u0000\u0000\u0000\u0000",
        "\u0000\u0000\u0000\u0000\u0000\u0000",
        "\u0000\u0000\u0000\u0000",
        "\u0000\u0000\u0000\u0000",
        "\u0000\u0000\u0000\u0000\u0000\u0000",
        "\u0000\u0000\u0000\u0000\u0000\u0000",
        "\u0000\u0000\u0000\u0000\u0000\u0000",
        "\u0000\u0000\u0000\u0000\u0000\u0000",
        "\u0000\u0000\u0000\u0000\u0000\u0000",
        "\u0000\u0000",
        "\u0000\u0000",
        "\u0000\u0000",
        "\u0000\u0000",
        "\u0000\u0000",
        "\u0000\u0000",
        "\u0000\u0000",
        "\u0000\u0000",
        "\u0000\u0000",
        "\u0000\u0000",
        "\u0000\u0000",
        "\u0000\u0000",
        "\u0000\u0000",
        "\u0000\u0000",
        "\u0000\u0000",
        "\u0000\u0000",
        "\u0000\u0000",
        "\u0000\u0000",
        "\u0000\u0000",
        "\u0000\u0000",
        "\u0000\u0000",
        "\u0000\u0000",
        "\u0000\u0000",
        "\u0000\u0000",
        "\u0000\u0000",
        "\u0000\u0000",
        "\u0000\u0000",
        "\u0000\u0000",
        "\u0000\u0000",
        "\u0000\u0000",
        "\u0000\u0000",
        "\u0000\u0000",
        "\u0000\u0000",
        "\u0000\u0000",
        "\u0000\u0000",
        "\u0000\u0000",
        "\u0000\u0000",
        "\u0000\u0000",
        "\u0000\u0000",
        "\u0000\u0000",
        "\u0000\u0000",
        "\u0000\u0000",
        "\u0000\u0000",
        "\u0000\u0000",
        "\u0000\u0000",
        "\u0000\u0000",
        "\u0000\u0000",
        "\u0000\u0000",
        "\u0000\u0000",
        "\u0000\u0000",
        "\u0000\u0000",
        "\u0000\u0000",
        "\u0000\u0000",
        "\u0000\u0000",
        "\u0000\u0000",
        "\u0000\u0000",
        "\u0000\u0000",
        "\u0000\u0000",
        "\u0000\u0000",
        "\u0000\u0000",
        "\u0000\u0000",
        "\u0000\u0000",
        "\u0000\u0000",
        "\u0000\u0000",
        "\u0000\u0000",
        "\u0000\u0000",
        "\u0000\u0000",
        "\u0000\u0000",
        "\u0000\u0000",
        "\u0000\u0000",
        "\u0000\u0000",
        "\u0000\u0000",
