{
  "AcquisitionMatrixPE": 70,
  "AcquisitionNumber": 1,
  "AcquisitionTime": "16:10:34.605000",
  "BandwidthPerPixelPhaseEncode": 51.948,
  "BaseResolution": 70,
  "BodyPartExamined": "HEAD",
  "CoilCombinationMethod": "Sum of Squares",
  "ConsistencyInfo": "N4_VE11C_LATEST_20160120",
  "ConversionSoftware": "dcm2niix",
  "ConversionSoftwareVersion": "v1.0.20220720",
  "DerivedVendorReportedEchoSpacing": 0.000550001,
  "DeviceSerialNumber": "66061",
  "DwellTime": 3.3e-06,
  "EchoTime": 0.022,
  "EchoTrainLength": 35,
  "EffectiveEchoSpacing": 0.000275,
  "FlipAngle": 90,
  "HeudiconvVersion": "1.1.1",
  "ImageOrientationPatientDICOM": [0.999411, 0.0075148, 0.033493, -0.00122098, 0.982907, -0.184101],
  "ImageOrientationText": "Tra>Cor(-10.6)>Sag(2.0)",
  "ImageType": [
    "ORIGINAL",
    "PRIMARY",
    "M",
    "ND",
    "NORM",
    "MOSAIC"
],
  "ImagingFrequency": 123.254,
  "InPlanePhaseEncodingDirectionDICOM": "COL",
  "InstitutionAddress": "Street StreetNo,City/1c4204/,District,KR,ZIP",
  "InstitutionName": "SKKU",
  "InstitutionalDepartmentName": "Department",
  "MRAcquisitionType": "2D",
  "MagneticFieldStrength": 3,
  "Manufacturer": "Siemens",
  "ManufacturersModelName": "Prisma",
  "MatrixCoilMode": "GRAPPA",
  "Modality": "MR",
  "NonlinearGradientCorrection": false,
  "ParallelReductionFactorInPlane": 2,
  "PartialFourier": 1,
  "PatientPosition": "HFS",
  "PercentPhaseFOV": 100,
  "PercentSampling": 100,
  "PhaseEncodingDirection": "j-",
  "PhaseEncodingSteps": 70,
  "PhaseResolution": 1,
  "PixelBandwidth": 2165,
  "ProcedureStepDescription": "Head^PI:Others",
  "ProtocolName": "BOLD_ep2d_3x3x3_dimension1",
  "PulseSequenceDetails": "%SiemensSeq%\\ep2d_pace",
  "ReceiveCoilActiveElements": "HC1-7",
  "ReceiveCoilName": "HeadNeck_64",
  "ReconMatrixPE": 70,
  "RefLinesPE": 24,
  "RepetitionTime": 2,
  "SAR": 0.140566,
  "ScanOptions": "FS",
  "ScanningSequence": "EP",
  "SequenceName": "*epfid2d1_70",
  "SequenceVariant": "SK",
  "SeriesDescription": "BOLD_ep2d_3x3x3_dimension1",
  "SeriesNumber": 6,
  "ShimSetting": [5098, 3762, 4338, 306, 51, -10, -167, 43],
  "SliceThickness": 3,
  "SliceTiming": [0.99, 0, 1.0375, 0.0475, 1.085, 0.095, 1.1325, 0.1425, 1.1775, 0.1875, 1.225, 0.235, 1.2725, 0.2825, 1.32, 0.33, 1.3675, 0.3775, 1.415, 0.425, 1.4625, 0.4725, 1.5075, 0.5175, 1.555, 0.565, 1.6025, 0.6125, 1.65, 0.66, 1.6975, 0.7075, 1.745, 0.755, 1.7925, 0.8025, 1.8375, 0.8475, 1.885, 0.895, 1.9325, 0.9425],
  "SoftwareVersions": "syngo MR E11",
  "SpacingBetweenSlices": 3,
  "StationName": "AWP66061",
  "TaskName": "dimension",
  "TotalReadoutTime": 0.018975,
  "TxRefAmp": 228.445,
  "dcmmeta_affine": [
    [-2.998232126235962, -0.003662948962301016, 0.10291185230016708, 105.32536315917969],
    [-0.02254439704120159, 2.9487199783325195, -0.5518540740013123, -90.55824279785156],
    [0.10047893971204758, 0.5523021817207336, 2.947009801864624, -57.32848358154297],
    [0.0, 0.0, 0.0, 1.0]
],
  "dcmmeta_reorient_transform": [
    [0.0, -1.0, 0.0, 69.0],
    [1.0, 0.0, 0.0, 0.0],
    [0.0, 0.0, -1.0, 41.0],
    [0.0, 0.0, 0.0, 1.0]
],
  "dcmmeta_shape": [70, 70, 42, 437],
  "dcmmeta_slice_dim": 2,
  "dcmmeta_version": 0.6,
  "global": {
    "const": {
      "AcquisitionMatrix": [70, 0, 0, 70],
      "AngioFlag": "N",
      "BitsAllocated": 16,
      "BitsStored": 12,
      "BodyPartExamined": "HEAD",
      "Columns": 490,
      "EchoNumbers": 1,
      "EchoTime": 22.0,
      "EchoTrainLength": 35,
      "FlipAngle": 90.0,
      "HighBit": 11,
      "ImageOrientationPatient": [0.99941070044505, 0.00751479883169, 0.03349297888285, -0.0012209830174, 0.98290662242241, -0.1841007354647],
      "ImagePositionPatient": [-738.15152610681, -714.24290864612, 196.49065402956],
      "ImageType": [
        "ORIGINAL",
        "PRIMARY",
        "M",
        "ND",
        "NORM",
        "MOSAIC"
],
      "ImagedNucleus": "1H",
      "ImagingFrequency": 123.254129,
      "InPlanePhaseEncodingDirection": "COL",
      "MRAcquisitionType": "2D",
      "MagneticFieldStrength": 3.0,
      "Manufacturer": "SIEMENS",
      "ManufacturerModelName": "Prisma",
      "Modality": "MR",
      "NumberOfAverages": 1.0,
      "NumberOfPhaseEncodingSteps": 70,
      "PercentPhaseFieldOfView": 100.0,
      "PercentSampling": 100.0,
      "PerformedProcedureStepStartTime": "153907.958000",
      "PhotometricInterpretation": "MONOCHROME2",
      "PixelBandwidth": 2165.0,
      "PixelRepresentation": 0,
      "PixelSpacing": [3.0, 3.0],
      "ProtocolName": "BOLD_ep2d_3x3x3_dimension1",
      "RepetitionTime": 2000.0,
      "Rows": 490,
      "SAR": 0.14056627295584,
      "SamplesPerPixel": 1,
      "ScanOptions": "FS",
      "ScanningSequence": "EP",
      "SequenceName": "*epfid2d1_70",
      "SequenceVariant": "SK",
      "SeriesDescription": "BOLD_ep2d_3x3x3_dimension1",
      "SeriesNumber": 6,
      "SeriesTime": "161115.973000",
      "SliceLocation": 86.955521268104,
      "SliceThickness": 3.0,
      "SmallestImagePixelValue": 0,
      "SoftwareVersions": "syngo MR E11",
      "SpacingBetweenSlices": 3.0000000436234,
      "SpecificCharacterSet": "ISO_IR 100",
      "StudyID": "1",
      "StudyTime": "153907.885000",
      "TransmitCoilName": "Body",
      "VariableFlipAngleFlag": "N",
      "WindowCenterWidthExplanation": "Algo1",
      "dBdt": 0.0},
    "slices": {}
  },
  "time": {
    "samples": {
      "AcquisitionNumber": [1, 2, 3, 4, 5, 6, 7, 8, 9, 10, 11, 12, 13, 14, 15, 16, 17, 18, 19, 20, 21, 22, 23, 24, 25, 26, 27, 28, 29, 30, 31, 32, 33, 34, 35, 36, 37, 38, 39, 40, 41, 42, 43, 44, 45, 46, 47, 48, 49, 50, 51, 52, 53, 54, 55, 56, 57, 58, 59, 60, 61, 62, 63, 64, 65, 66, 67, 68, 69, 70, 71, 72, 73, 74, 75, 76, 77, 78, 79, 80, 81, 82, 83, 84, 85, 86, 87, 88, 89, 90, 91, 92, 93, 94, 95, 96, 97, 98, 99, 100, 101, 102, 103, 104, 105, 106, 107, 108, 109, 110, 111, 112, 113, 114, 115, 116, 117, 118, 119, 120, 121, 122, 123, 124, 125, 126, 127, 128, 129, 130, 131, 132, 133, 134, 135, 136, 137, 138, 139, 140, 141, 142, 143, 144, 145, 146, 147, 148, 149, 150, 151, 152, 153, 154, 155, 156, 157, 158, 159, 160, 161, 162, 163, 164, 165, 166, 167, 168, 169, 170, 171, 172, 173, 174, 175, 176, 177, 178, 179, 180, 181, 182, 183, 184, 185, 186, 187, 188, 189, 190, 191, 192, 193, 194, 195, 196, 197, 198, 199, 200, 201, 202, 203, 204, 205, 206, 207, 208, 209, 210, 211, 212, 213, 214, 215, 216, 217, 218, 219, 220, 221, 222, 223, 224, 225, 226, 227, 228, 229, 230, 231, 232, 233, 234, 235, 236, 237, 238, 239, 240, 241, 242, 243, 244, 245, 246, 247, 248, 249, 250, 251, 252, 253, 254, 255, 256, 257, 258, 259, 260, 261, 262, 263, 264, 265, 266, 267, 268, 269, 270, 271, 272, 273, 274, 275, 276, 277, 278, 279, 280, 281, 282, 283, 284, 285, 286, 287, 288, 289, 290, 291, 292, 293, 294, 295, 296, 297, 298, 299, 300, 301, 302, 303, 304, 305, 306, 307, 308, 309, 310, 311, 312, 313, 314, 315, 316, 317, 318, 319, 320, 321, 322, 323, 324, 325, 326, 327, 328, 329, 330, 331, 332, 333, 334, 335, 336, 337, 338, 339, 340, 341, 342, 343, 344, 345, 346, 347, 348, 349, 350, 351, 352, 353, 354, 355, 356, 357, 358, 359, 360, 361, 362, 363, 364, 365, 366, 367, 368, 369, 370, 371, 372, 373, 374, 375, 376, 377, 378, 379, 380, 381, 382, 383, 384, 385, 386, 387, 388, 389, 390, 391, 392, 393, 394, 395, 396, 397, 398, 399, 400, 401, 402, 403, 404, 405, 406, 407, 408, 409, 410, 411, 412, 413, 414, 415, 416, 417, 418, 419, 420, 421, 422, 423, 424, 425, 426, 427, 428, 429, 430, 431, 432, 433, 434, 435, 436, 437],
      "AcquisitionTime": ["161034.605000", "161036.605000", "161038.605000", "161040.605000", "161042.605000", "161044.605000", "161046.605000", "161048.605000", "161050.605000", "161052.605000", "161054.605000", "161056.605000", "161058.605000", "161100.605000", "161102.605000", "161104.605000", "161106.605000", "161108.605000", "161110.605000", "161112.605000", "161114.605000", "161116.605000", "161118.605000", "161120.605000", "161122.605000", "161124.605000", "161126.605000", "161128.605000", "161130.605000", "161132.605000", "161134.605000", "161136.605000", "161138.605000", "161140.605000", "161142.605000", "161144.605000", "161146.605000", "161148.605000", "161150.605000", "161152.605000", "161154.605000", "161156.605000", "161158.605000", "161200.605000", "161202.605000", "161204.605000", "161206.605000", "161208.605000", "161210.605000", "161212.605000", "161214.605000", "161216.605000", "161218.605000", "161220.605000", "161222.605000", "161224.605000", "161226.605000", "161228.605000", "161230.605000", "161232.605000", "161234.605000", "161236.605000", "161238.605000", "161240.605000", "161242.605000", "161244.605000", "161246.605000", "161248.605000", "161250.605000", "161252.605000", "161254.605000", "161256.605000", "161258.605000", "161300.605000", "161302.605000", "161304.605000", "161306.605000", "161308.605000", "161310.605000", "161312.605000", "161314.605000", "161316.605000", "161318.605000", "161320.605000", "161322.605000", "161324.605000", "161326.605000", "161328.605000", "161330.605000", "161332.605000", "161334.605000", "161336.605000", "161338.605000", "161340.605000", "161342.605000", "161344.605000", "161346.605000", "161348.605000", "161350.605000", "161352.605000", "161354.605000", "161356.605000", "161358.605000", "161400.605000", "161402.605000", "161404.605000", "161406.605000", "161408.605000", "161410.605000", "161412.605000", "161414.605000", "161416.605000", "161418.605000", "161420.605000", "161422.605000", "161424.605000", "161426.605000", "161428.605000", "161430.605000", "161432.605000", "161434.605000", "161436.605000", "161438.605000", "161440.605000", "161442.605000", "161444.605000", "161446.605000", "161448.605000", "161450.605000", "161452.605000", "161454.605000", "161456.605000", "161458.605000", "161500.605000", "161502.605000", "161504.605000", "161506.605000", "161508.605000", "161510.605000", "161512.605000", "161514.605000", "161516.605000", "161518.605000", "161520.605000", "161522.605000", "161524.605000", "161526.605000", "161528.605000", "161530.605000", "161532.605000", "161534.605000", "161536.605000", "161538.605000", "161540.605000", "161542.605000", "161544.605000", "161546.605000", "161548.605000", "161550.605000", "161552.605000", "161554.605000", "161556.605000", "161558.605000", "161600.605000", "161602.605000", "161604.605000", "161606.605000", "161608.605000", "161610.605000", "161612.605000", "161614.605000", "161616.605000", "161618.605000", "161620.605000", "161622.605000", "161624.605000", "161626.605000", "161628.605000", "161630.605000", "161632.605000", "161634.605000", "161636.605000", "161638.605000", "161640.605000", "161642.605000", "161644.605000", "161646.605000", "161648.605000", "161650.605000", "161652.605000", "161654.605000", "161656.605000", "161658.605000", "161700.605000", "161702.605000", "161704.605000", "161706.605000", "161708.605000", "161710.605000", "161712.605000", "161714.605000", "161716.605000", "161718.605000", "161720.605000", "161722.605000", "161724.605000", "161726.605000", "161728.605000", "161730.605000", "161732.605000", "161734.605000", "161736.605000", "161738.605000", "161740.605000", "161742.605000", "161744.605000", "161746.605000", "161748.605000", "161750.605000", "161752.605000", "161754.605000", "161756.605000", "161758.605000", "161800.605000", "161802.605000", "161804.605000", "161806.605000", "161808.605000", "161810.605000", "161812.605000", "161814.605000", "161816.605000", "161818.605000", "161820.605000", "161822.605000", "161824.605000", "161826.605000", "161828.605000", "161830.605000", "161832.605000", "161834.605000", "161836.605000", "161838.605000", "161840.605000", "161842.605000", "161844.605000", "161846.605000", "161848.605000", "161850.605000", "161852.605000", "161854.605000", "161856.605000", "161858.605000", "161900.605000", "161902.605000", "161904.605000", "161906.605000", "161908.605000", "161910.605000", "161912.605000", "161914.605000", "161916.605000", "161918.605000", "161920.605000", "161922.605000", "161924.605000", "161926.605000", "161928.605000", "161930.605000", "161932.605000", "161934.605000", "161936.605000", "161938.605000", "161940.605000", "161942.605000", "161944.605000", "161946.605000", "161948.605000", "161950.605000", "161952.605000", "161954.605000", "161956.605000", "161958.605000", "162000.605000", "162002.605000", "162004.605000", "162006.605000", "162008.605000", "162010.605000", "162012.605000", "162014.605000", "162016.605000", "162018.605000", "162020.605000", "162022.605000", "162024.605000", "162026.605000", "162028.605000", "162030.605000", "162032.605000", "162034.605000", "162036.605000", "162038.605000", "162040.605000", "162042.605000", "162044.605000", "162046.605000", "162048.605000", "162050.605000", "162052.605000", "162054.605000", "162056.605000", "162058.605000", "162100.605000", "162102.605000", "162104.605000", "162106.605000", "162108.605000", "162110.605000", "162112.605000", "162114.605000", "162116.605000", "162118.605000", "162120.605000", "162122.605000", "162124.605000", "162126.605000", "162128.605000", "162130.605000", "162132.605000", "162134.605000", "162136.605000", "162138.605000", "162140.605000", "162142.605000", "162144.605000", "162146.605000", "162148.605000", "162150.605000", "162152.605000", "162154.605000", "162156.605000", "162158.605000", "162200.605000", "162202.605000", "162204.605000", "162206.605000", "162208.605000", "162210.605000", "162212.605000", "162214.605000", "162216.605000", "162218.605000", "162220.605000", "162222.605000", "162224.605000", "162226.605000", "162228.605000", "162230.605000", "162232.605000", "162234.605000", "162236.605000", "162238.605000", "162240.605000", "162242.605000", "162244.605000", "162246.605000", "162248.605000", "162250.605000", "162252.605000", "162254.605000", "162256.605000", "162258.605000", "162300.605000", "162302.605000", "162304.605000", "162306.605000", "162308.605000", "162310.605000", "162312.605000", "162314.605000", "162316.605000", "162318.605000", "162320.605000", "162322.605000", "162324.605000", "162326.605000", "162328.605000", "162330.605000", "162332.605000", "162334.605000", "162336.605000", "162338.605000", "162340.605000", "162342.605000", "162344.605000", "162346.605000", "162348.605000", "162350.605000", "162352.605000", "162354.605000", "162356.605000", "162358.605000", "162400.605000", "162402.605000", "162404.605000", "162406.605000", "162408.605000", "162410.605000", "162412.605000", "162414.605000", "162416.605000", "162418.605000", "162420.605000", "162422.605000", "162424.605000", "162426.605000", "162428.605000", "162430.605000", "162432.605000", "162434.605000", "162436.605000", "162438.605000", "162440.605000", "162442.605000", "162444.605000", "162446.605000", "162448.605000", "162450.605000", "162452.605000", "162454.605000", "162456.605000", "162458.605000", "162500.605000", "162502.605000", "162504.605000", "162506.605000"],
      "ContentTime": ["161115.976000", "161115.980000", "161115.983000", "161115.985000", "161115.995000", "161115.998000", "161116.001000", "161116.004000", "161116.007000", "161116.009000", "161116.012000", "161116.020000", "161116.022000", "161116.025000", "161116.032000", "161116.035000", "161116.038000", "161116.040000", "161116.043000", "161116.046000", "161155.972000", "161155.975000", "161155.977000", "161155.980000", "161155.983000", "161155.985000", "161155.988000", "161155.991000", "161155.993000", "161155.996000", "161155.998000", "161156.002000", "161156.005000", "161156.007000", "161156.010000", "161156.013000", "161156.015000", "161156.018000", "161156.021000", "161156.023000", "161235.972000", "161235.974000", "161235.977000", "161235.980000", "161235.982000", "161235.985000", "161235.988000", "161235.990000", "161235.993000", "161235.996000", "161236.009000", "161236.012000", "161236.014000", "161236.017000", "161236.020000", "161236.022000", "161236.025000", "161236.028000", "161236.030000", "161236.033000", "161315.972000", "161315.975000", "161315.977000", "161315.980000", "161315.982000", "161315.985000", "161315.988000", "161315.990000", "161315.993000", "161315.996000", "161316.000000", "161316.002000", "161316.005000", "161316.007000", "161316.010000", "161316.013000", "161316.015000", "161316.018000", "161316.021000", "161316.023000", "161355.973000", "161355.975000", "161355.978000", "161355.981000", "161355.984000", "161355.986000", "161355.989000", "161355.992000", "161355.994000", "161355.997000", "161356.001000", "161356.003000", "161356.006000", "161356.009000", "161356.011000", "161356.014000", "161356.017000", "161356.019000", "161356.022000", "161356.025000", "161435.972000", "161435.975000", "161435.977000", "161435.980000", "161435.983000", "161435.985000", "161435.988000", "161435.991000", "161435.993000", "161435.996000", "161436.000000", "161436.002000", "161436.005000", "161436.008000", "161436.011000", "161436.013000", "161436.016000", "161436.019000", "161436.021000", "161436.024000", "161515.972000", "161515.975000", "161515.977000", "161515.980000", "161515.983000", "161515.985000", "161515.988000", "161515.991000", "161515.993000", "161515.996000", "161515.998000", "161516.002000", "161516.005000", "161516.007000", "161516.010000", "161516.013000", "161516.016000", "161516.018000", "161516.021000", "161516.024000", "161555.972000", "161555.975000", "161555.977000", "161555.980000", "161555.983000", "161555.985000", "161555.988000", "161555.991000", "161555.993000", "161555.996000", "161556.000000", "161556.002000", "161556.005000", "161556.008000", "161556.010000", "161556.013000", "161556.016000", "161556.018000", "161556.021000", "161556.024000", "161635.972000", "161635.975000", "161635.977000", "161635.980000", "161635.983000", "161635.985000", "161635.988000", "161635.990000", "161635.993000", "161635.996000", "161635.998000", "161636.002000", "161636.005000", "161636.007000", "161636.010000", "161636.013000", "161636.016000", "161636.018000", "161636.021000", "161636.024000", "161715.972000", "161715.975000", "161715.977000", "161715.980000", "161715.983000", "161715.985000", "161715.988000", "161716.004000", "161716.007000", "161716.009000", "161716.012000", "161716.015000", "161716.017000", "161716.020000", "161716.022000", "161716.025000", "161716.028000", "161716.031000", "161716.033000", "161716.036000", "161755.972000", "161755.974000", "161755.977000", "161755.980000", "161755.982000", "161755.985000", "161755.988000", "161755.990000", "161755.993000", "161755.996000", "161755.998000", "161756.002000", "161756.005000", "161756.008000", "161756.010000", "161756.013000", "161756.016000", "161756.018000", "161756.021000", "161756.024000", "161835.973000", "161835.976000", "161835.978000", "161835.981000", "161835.984000", "161835.986000", "161835.989000", "161835.992000", "161835.994000", "161835.997000", "161836.001000", "161836.003000", "161836.006000", "161836.009000", "161836.011000", "161836.014000", "161836.017000", "161836.019000", "161836.022000", "161836.025000", "161915.972000", "161915.975000", "161915.977000", "161915.980000", "161915.983000", "161915.985000", "161915.988000", "161915.991000", "161915.993000", "161915.996000", "161916.000000", "161916.002000", "161916.005000", "161916.008000", "161916.010000", "161916.013000", "161916.016000", "161916.019000", "161916.021000", "161916.024000", "161955.972000", "161955.974000", "161955.977000", "161955.980000", "161955.983000", "161955.985000", "161955.988000", "161955.990000", "161955.993000", "161955.996000", "161956.000000", "161956.002000", "161956.005000", "161956.008000", "161956.010000", "161956.013000", "161956.016000", "161956.018000", "161956.021000", "161956.024000", "162035.972000", "162035.975000", "162035.977000", "162035.980000", "162035.983000", "162035.985000", "162035.988000", "162035.991000", "162035.993000", "162035.996000", "162036.000000", "162036.003000", "162036.005000", "162036.008000", "162036.010000", "162036.013000", "162036.016000", "162036.018000", "162036.021000", "162036.024000", "162115.972000", "162115.975000", "162115.977000", "162115.980000", "162115.983000", "162115.985000", "162115.988000", "162115.991000", "162115.994000", "162115.996000", "162116.000000", "162116.003000", "162116.006000", "162116.008000", "162116.011000", "162116.014000", "162116.016000", "162116.019000", "162116.022000", "162116.024000", "162155.972000", "162155.975000", "162155.977000", "162155.980000", "162155.983000", "162155.985000", "162155.988000", "162155.991000", "162155.993000", "162155.996000", "162156.000000", "162156.002000", "162156.005000", "162156.008000", "162156.010000", "162156.013000", "162156.016000", "162156.018000", "162156.021000", "162156.024000", "162235.972000", "162235.975000", "162235.977000", "162235.980000", "162235.983000", "162235.985000", "162235.988000", "162235.991000", "162235.993000", "162235.996000", "162236.000000", "162236.002000", "162236.005000", "162236.008000", "162236.010000", "162236.013000", "162236.016000", "162236.018000", "162236.021000", "162236.023000", "162315.973000", "162315.976000", "162315.978000", "162315.981000", "162315.984000", "162315.986000", "162315.989000", "162315.992000", "162315.994000", "162315.997000", "162316.001000", "162316.003000", "162316.006000", "162316.009000", "162316.011000", "162316.014000", "162316.017000", "162316.019000", "162316.022000", "162316.024000", "162355.972000", "162355.975000", "162355.977000", "162355.980000", "162355.982000", "162355.985000", "162355.988000", "162355.990000", "162355.993000", "162355.996000", "162356.000000", "162356.002000", "162356.005000", "162356.008000", "162356.010000", "162356.013000", "162356.016000", "162356.019000", "162356.021000", "162356.024000", "162435.972000", "162435.975000", "162435.977000", "162435.980000", "162435.983000", "162435.985000", "162435.988000", "162435.991000", "162436.007000", "162436.009000", "162436.012000", "162436.015000", "162436.017000", "162436.020000", "162436.023000", "162436.025000", "162436.028000", "162436.031000", "162436.033000", "162436.036000", "162508.434000", "162508.437000", "162508.440000", "162508.443000", "162508.445000", "162508.448000", "162508.451000", "162508.454000", "162508.456000", "162508.459000", "162508.462000", "162508.465000", "162508.467000", "162508.470000", "162508.473000", "162508.476000", "162508.479000"],
      "DataSetTrailingPadding": [
        "\u0000\u0000\u0000\u0000\u0000\u0000\u0000\u0000\u0000\u0000\u0000\u0000\u0000\u0000\u0000\u0000\u0000\u0000\u0000\u0000\u0000\u0000\u0000\u0000\u0000\u0000\u0000\u0000\u0000\u0000\u0000\u0000\u0000\u0000\u0000\u0000\u0000\u0000\u0000\u0000\u0000\u0000\u0000\u0000\u0000\u0000\u0000\u0000\u0000\u0000\u0000\u0000\u0000\u0000\u0000\u0000\u0000\u0000\u0000\u0000\u0000\u0000\u0000\u0000\u0000\u0000\u0000\u0000\u0000\u0000\u0000\u0000\u0000\u0000\u0000\u0000\u0000\u0000\u0000\u0000\u0000\u0000\u0000\u0000\u0000\u0000\u0000\u0000\u0000\u0000\u0000\u0000\u0000\u0000\u0000\u0000\u0000\u0000\u0000\u0000\u0000\u0000\u0000\u0000\u0000\u0000\u0000\u0000\u0000\u0000\u0000\u0000\u0000\u0000\u0000\u0000\u0000\u0000\u0000\u0000\u0000\u0000\u0000\u0000\u0000\u0000\u0000\u0000\u0000\u0000\u0000\u0000\u0000\u0000\u0000\u0000\u0000\u0000\u0000\u0000\u0000\u0000\u0000\u0000\u0000\u0000\u0000\u0000\u0000\u0000\u0000\u0000\u0000\u0000\u0000\u0000\u0000\u0000\u0000\u0000\u0000\u0000\u0000\u0000\u0000\u0000\u0000\u0000\u0000\u0000\u0000\u0000\u0000\u0000\u0000\u0000\u0000\u0000\u0000\u0000\u0000\u0000\u0000\u0000\u0000\u0000\u0000\u0000\u0000\u0000\u0000\u0000\u0000\u0000\u0000\u0000\u0000\u0000\u0000\u0000\u0000\u0000\u0000\u0000\u0000\u0000\u0000\u0000\u0000\u0000\u0000\u0000\u0000\u0000\u0000\u0000\u0000\u0000\u0000\u0000\u0000\u0000\u0000\u0000\u0000\u0000\u0000\u0000\u0000\u0000\u0000\u0000\u0000\u0000\u0000\u0000\u0000\u0000\u0000\u0000\u0000\u0000\u0000\u0000\u0000\u0000\u0000\u0000\u0000\u0000\u0000\u0000\u0000\u0000\u0000\u0000\u0000\u0000\u0000\u0000\u0000\u0000\u0000\u0000\u0000\u0000\u0000\u0000\u0000\u0000\u0000\u0000\u0000\u0000\u0000\u0000\u0000\u0000\u0000\u0000\u0000\u0000\u0000\u0000\u0000\u0000\u0000\u0000\u0000\u0000\u0000\u0000\u0000\u0000\u0000\u0000\u0000\u0000\u0000\u0000\u0000\u0000\u0000\u0000\u0000\u0000",
        "\u0000\u0000\u0000\u0000\u0000\u0000\u0000\u0000\u0000\u0000\u0000\u0000\u0000\u0000\u0000\u0000\u0000\u0000\u0000\u0000\u0000\u0000\u0000\u0000\u0000\u0000\u0000\u0000\u0000\u0000\u0000\u0000\u0000\u0000\u0000\u0000\u0000\u0000\u0000\u0000\u0000\u0000\u0000\u0000\u0000\u0000\u0000\u0000\u0000\u0000\u0000\u0000\u0000\u0000\u0000\u0000\u0000\u0000\u0000\u0000\u0000\u0000\u0000\u0000\u0000\u0000\u0000\u0000\u0000\u0000\u0000\u0000\u0000\u0000\u0000\u0000\u0000\u0000\u0000\u0000\u0000\u0000\u0000\u0000\u0000\u0000\u0000\u0000\u0000\u0000\u0000\u0000\u0000\u0000\u0000\u0000\u0000\u0000\u0000\u0000\u0000\u0000\u0000\u0000\u0000\u0000\u0000\u0000\u0000\u0000\u0000\u0000\u0000\u0000\u0000\u0000\u0000\u0000\u0000\u0000\u0000\u0000\u0000\u0000\u0000\u0000\u0000\u0000\u0000\u0000\u0000\u0000\u0000\u0000\u0000\u0000\u0000\u0000\u0000\u0000\u0000\u0000\u0000\u0000\u0000\u0000\u0000\u0000\u0000\u0000\u0000\u0000\u0000\u0000\u0000\u0000\u0000\u0000\u0000\u0000\u0000\u0000\u0000\u0000\u0000\u0000\u0000\u0000\u0000\u0000\u0000\u0000\u0000\u0000\u0000\u0000\u0000\u0000\u0000\u0000\u0000\u0000\u0000\u0000\u0000\u0000\u0000\u0000\u0000\u0000\u0000\u0000\u0000\u0000\u0000\u0000\u0000\u0000\u0000\u0000\u0000\u0000\u0000\u0000\u0000\u0000\u0000\u0000\u0000\u0000\u0000\u0000\u0000\u0000\u0000\u0000\u0000\u0000\u0000\u0000\u0000\u0000\u0000\u0000\u0000\u0000\u0000\u0000\u0000\u0000\u0000\u0000\u0000\u0000\u0000\u0000\u0000\u0000\u0000\u0000\u0000\u0000\u0000\u0000\u0000\u0000\u0000\u0000\u0000\u0000\u0000\u0000\u0000\u0000\u0000\u0000\u0000\u0000\u0000\u0000\u0000\u0000\u0000\u0000\u0000\u0000\u0000\u0000\u0000\u0000\u0000\u0000\u0000\u0000\u0000\u0000\u0000\u0000\u0000\u0000\u0000\u0000\u0000\u0000\u0000\u0000\u0000\u0000\u0000\u0000\u0000\u0000\u0000\u0000\u0000\u0000\u0000\u0000\u0000\u0000\u0000\u0000\u0000\u0000\u0000\u0000\u0000\u0000",
        "\u0000\u0000\u0000\u0000\u0000\u0000\u0000\u0000\u0000\u0000\u0000\u0000\u0000\u0000\u0000\u0000\u0000\u0000\u0000\u0000\u0000\u0000\u0000\u0000\u0000\u0000\u0000\u0000\u0000\u0000\u0000\u0000\u0000\u0000\u0000\u0000\u0000\u0000\u0000\u0000\u0000\u0000\u0000\u0000\u0000\u0000\u0000\u0000\u0000\u0000\u0000\u0000\u0000\u0000\u0000\u0000\u0000\u0000\u0000\u0000\u0000\u0000\u0000\u0000\u0000\u0000\u0000\u0000\u0000\u0000\u0000\u0000\u0000\u0000\u0000\u0000\u0000\u0000\u0000\u0000\u0000\u0000\u0000\u0000\u0000\u0000\u0000\u0000\u0000\u0000\u0000\u0000\u0000\u0000\u0000\u0000\u0000\u0000\u0000\u0000\u0000\u0000\u0000\u0000\u0000\u0000\u0000\u0000\u0000\u0000\u0000\u0000\u0000\u0000\u0000\u0000\u0000\u0000\u0000\u0000\u0000\u0000\u0000\u0000\u0000\u0000\u0000\u0000\u0000\u0000\u0000\u0000\u0000\u0000\u0000\u0000\u0000\u0000\u0000\u0000\u0000\u0000\u0000\u0000\u0000\u0000\u0000\u0000\u0000\u0000\u0000\u0000\u0000\u0000\u0000\u0000\u0000\u0000\u0000\u0000\u0000\u0000\u0000\u0000\u0000\u0000\u0000\u0000\u0000\u0000\u0000\u0000\u0000\u0000\u0000\u0000\u0000\u0000\u0000\u0000\u0000\u0000\u0000\u0000\u0000\u0000\u0000\u0000\u0000\u0000\u0000\u0000\u0000\u0000\u0000\u0000\u0000\u0000\u0000\u0000\u0000\u0000\u0000\u0000\u0000\u0000\u0000\u0000\u0000\u0000\u0000\u0000\u0000\u0000\u0000\u0000\u0000\u0000\u0000\u0000\u0000\u0000\u0000\u0000\u0000\u0000\u0000\u0000\u0000\u0000\u0000\u0000\u0000\u0000\u0000\u0000\u0000\u0000\u0000\u0000\u0000\u0000\u0000\u0000\u0000\u0000\u0000\u0000\u0000\u0000\u0000\u0000\u0000\u0000\u0000\u0000\u0000\u0000\u0000\u0000\u0000\u0000\u0000\u0000\u0000\u0000\u0000\u0000\u0000\u0000\u0000\u0000\u0000\u0000\u0000\u0000\u0000\u0000\u0000\u0000\u0000\u0000\u0000\u0000\u0000\u0000\u0000\u0000\u0000\u0000\u0000\u0000\u0000\u0000\u0000\u0000\u0000\u0000\u0000\u0000\u0000\u0000\u0000\u0000\u0000\u0000\u0000\u0000",
        "\u0000\u0000\u0000\u0000\u0000\u0000\u0000\u0000\u0000\u0000\u0000\u0000\u0000\u0000\u0000\u0000\u0000\u0000\u0000\u0000\u0000\u0000\u0000\u0000\u0000\u0000\u0000\u0000\u0000\u0000\u0000\u0000\u0000\u0000\u0000\u0000\u0000\u0000\u0000\u0000\u0000\u0000\u0000\u0000\u0000\u0000\u0000\u0000\u0000\u0000\u0000\u0000\u0000\u0000\u0000\u0000\u0000\u0000\u0000\u0000\u0000\u0000\u0000\u0000\u0000\u0000\u0000\u0000\u0000\u0000\u0000\u0000\u0000\u0000\u0000\u0000\u0000\u0000\u0000\u0000\u0000\u0000\u0000\u0000\u0000\u0000\u0000\u0000\u0000\u0000\u0000\u0000\u0000\u0000\u0000\u0000\u0000\u0000\u0000\u0000\u0000\u0000\u0000\u0000\u0000\u0000\u0000\u0000\u0000\u0000\u0000\u0000\u0000\u0000\u0000\u0000\u0000\u0000\u0000\u0000\u0000\u0000\u0000\u0000\u0000\u0000\u0000\u0000\u0000\u0000\u0000\u0000\u0000\u0000\u0000\u0000\u0000\u0000\u0000\u0000\u0000\u0000\u0000\u0000\u0000\u0000\u0000\u0000\u0000\u0000\u0000\u0000\u0000\u0000\u0000\u0000\u0000\u0000\u0000\u0000\u0000\u0000\u0000\u0000\u0000\u0000\u0000\u0000\u0000\u0000\u0000\u0000\u0000\u0000\u0000\u0000\u0000\u0000\u0000\u0000\u0000\u0000\u0000\u0000\u0000\u0000\u0000\u0000\u0000\u0000\u0000\u0000\u0000\u0000\u0000\u0000\u0000\u0000\u0000\u0000\u0000\u0000\u0000\u0000\u0000\u0000\u0000\u0000\u0000\u0000\u0000\u0000\u0000\u0000\u0000\u0000\u0000\u0000\u0000\u0000\u0000\u0000\u0000\u0000\u0000\u0000\u0000\u0000\u0000\u0000\u0000\u0000\u0000\u0000\u0000\u0000\u0000\u0000\u0000\u0000\u0000\u0000\u0000\u0000\u0000\u0000\u0000\u0000\u0000\u0000\u0000\u0000\u0000\u0000\u0000\u0000\u0000\u0000\u0000\u0000\u0000\u0000\u0000\u0000\u0000\u0000\u0000\u0000\u0000\u0000\u0000\u0000\u0000\u0000\u0000\u0000\u0000\u0000\u0000\u0000\u0000\u0000\u0000\u0000\u0000\u0000\u0000\u0000\u0000\u0000\u0000\u0000\u0000\u0000\u0000\u0000\u0000\u0000\u0000\u0000\u0000\u0000\u0000\u0000\u0000\u0000\u0000\u0000",
