{
  "AcquisitionMatrixPE": 70,
  "AcquisitionNumber": 1,
  "AcquisitionTime": "13:43:46.500000",
  "BandwidthPerPixelPhaseEncode": 51.948,
  "BaseResolution": 70,
  "BodyPartExamined": "HEAD",
  "CoilCombinationMethod": "Sum of Squares",
  "ConsistencyInfo": "N4_VE11C_LATEST_20160120",
  "ConversionSoftware": "dcm2niix",
  "ConversionSoftwareVersion": "v1.0.20220720",
  "DerivedVendorReportedEchoSpacing": 0.000550001,
  "DeviceSerialNumber": "66061",
  "DwellTime": 3.3e-06,
  "EchoTime": 0.022,
  "EchoTrainLength": 35,
  "EffectiveEchoSpacing": 0.000275,
  "FlipAngle": 90,
  "HeudiconvVersion": "1.1.1",
  "ImageOrientationPatientDICOM": [0.997017, 0.0125234, 0.0761624, -0.0012181, 0.989179, -0.146705],
  "ImageOrientationText": "Tra>Cor(-8.4)>Sag(4.4)",
  "ImageType": [
    "ORIGINAL",
    "PRIMARY",
    "M",
    "ND",
    "NORM",
    "MOSAIC"
],
  "ImagingFrequency": 123.254,
  "InPlanePhaseEncodingDirectionDICOM": "COL",
  "InstitutionAddress": "Street StreetNo,City/1c4204/,District,KR,ZIP",
  "InstitutionName": "SKKU",
  "InstitutionalDepartmentName": "Department",
  "MRAcquisitionType": "2D",
  "MagneticFieldStrength": 3,
  "Manufacturer": "Siemens",
  "ManufacturersModelName": "Prisma",
  "MatrixCoilMode": "GRAPPA",
  "Modality": "MR",
  "NonlinearGradientCorrection": false,
  "ParallelReductionFactorInPlane": 2,
  "PartialFourier": 1,
  "PatientPosition": "HFS",
  "PercentPhaseFOV": 100,
  "PercentSampling": 100,
  "PhaseEncodingDirection": "j-",
  "PhaseEncodingSteps": 70,
  "PhaseResolution": 1,
  "PixelBandwidth": 2165,
  "ProcedureStepDescription": "Head^PI:Others",
  "ProtocolName": "BOLD_ep2d_3x3x3_dimension2",
  "PulseSequenceDetails": "%SiemensSeq%\\ep2d_pace",
  "ReceiveCoilActiveElements": "HC1-7",
  "ReceiveCoilName": "HeadNeck_64",
  "ReconMatrixPE": 70,
  "RefLinesPE": 24,
  "RepetitionTime": 2,
  "SAR": 0.128297,
  "ScanOptions": "FS",
  "ScanningSequence": "EP",
  "SequenceName": "*epfid2d1_70",
  "SequenceVariant": "SK",
  "SeriesDescription": "BOLD_ep2d_3x3x3_dimension2",
  "SeriesNumber": 9,
  "ShimSetting": [5057, 3657, 4322, 340, -102, -62, 2, 86],
  "SliceThickness": 3,
  "SliceTiming": [0.99, 0, 1.0375, 0.0475, 1.085, 0.095, 1.1325, 0.1425, 1.1775, 0.1875, 1.225, 0.235, 1.2725, 0.2825, 1.32, 0.33, 1.3675, 0.3775, 1.415, 0.425, 1.4625, 0.4725, 1.5075, 0.5175, 1.555, 0.565, 1.6025, 0.6125, 1.65, 0.66, 1.6975, 0.7075, 1.745, 0.755, 1.79, 0.8025, 1.8375, 0.8475, 1.885, 0.895, 1.9325, 0.9425],
  "SoftwareVersions": "syngo MR E11",
  "SpacingBetweenSlices": 3,
  "StationName": "AWP66061",
  "TaskName": "dimension",
  "TotalReadoutTime": 0.018975,
  "TxRefAmp": 222.282,
  "dcmmeta_affine": [
    [-2.9910502433776855, -0.0036543102469295263, 0.23152659833431244, 105.2288589477539],
    [-0.03757023066282272, 2.967538356781006, -0.4385248124599457, -88.20213317871094],
    [0.22848717868328094, 0.4401160776615143, 2.9587314128875732, -63.66090393066406],
    [0.0, 0.0, 0.0, 1.0]
],
  "dcmmeta_reorient_transform": [
    [0.0, -1.0, 0.0, 69.0],
    [1.0, 0.0, 0.0, 0.0],
    [0.0, 0.0, -1.0, 41.0],
    [0.0, 0.0, 0.0, 1.0]
],
  "dcmmeta_shape": [70, 70, 42, 437],
  "dcmmeta_slice_dim": 2,
  "dcmmeta_version": 0.6,
  "global": {
    "const": {
      "AcquisitionMatrix": [70, 0, 0, 70],
      "AngioFlag": "N",
      "BitsAllocated": 16,
      "BitsStored": 12,
      "BodyPartExamined": "HEAD",
      "Columns": 490,
      "EchoNumbers": 1,
      "EchoTime": 22.0,
      "EchoTrainLength": 35,
      "FlipAngle": 90.0,
      "HighBit": 11,
      "ImageOrientationPatient": [0.99701677724183, 0.01252341081974, 0.07616239281793, -0.0012181034373, 0.9891794845476, -0.1467053631404],
      "ImagePositionPatient": [-741.82246283022, -729.65132825979, 132.45716881933],
      "ImageType": [
        "ORIGINAL",
        "PRIMARY",
        "M",
        "ND",
        "NORM",
        "MOSAIC"
],
      "ImagedNucleus": "1H",
      "ImagingFrequency": 123.254087,
      "InPlanePhaseEncodingDirection": "COL",
      "MRAcquisitionType": "2D",
      "MagneticFieldStrength": 3.0,
      "Manufacturer": "SIEMENS",
      "ManufacturerModelName": "Prisma",
      "Modality": "MR",
      "NumberOfAverages": 1.0,
      "NumberOfPhaseEncodingSteps": 70,
      "PercentPhaseFieldOfView": 100.0,
      "PercentSampling": 100.0,
      "PerformedProcedureStepStartTime": "123928.848000",
      "PhotometricInterpretation": "MONOCHROME2",
      "PixelBandwidth": 2165.0,
      "PixelRepresentation": 0,
      "PixelSpacing": [3.0, 3.0],
      "ProtocolName": "BOLD_ep2d_3x3x3_dimension2",
      "RepetitionTime": 2000.0,
      "Rows": 490,
      "SAR": 0.12829694978368,
      "SamplesPerPixel": 1,
      "ScanOptions": "FS",
      "ScanningSequence": "EP",
      "SequenceName": "*epfid2d1_70",
      "SequenceVariant": "SK",
      "SeriesDescription": "BOLD_ep2d_3x3x3_dimension2",
      "SeriesNumber": 9,
      "SeriesTime": "134431.303000",
      "SliceLocation": 81.228866061869,
      "SliceThickness": 3.0,
      "SmallestImagePixelValue": 0,
      "SoftwareVersions": "syngo MR E11",
      "SpacingBetweenSlices": 3.0000001013919,
      "SpecificCharacterSet": "ISO_IR 100",
      "StudyID": "1",
      "StudyTime": "123928.779000",
      "TransmitCoilName": "Body",
      "VariableFlipAngleFlag": "N",
      "WindowCenterWidthExplanation": "Algo1",
      "dBdt": 0.0},
    "slices": {}
  },
  "time": {
    "samples": {
      "AcquisitionNumber": [1, 2, 3, 4, 5, 6, 7, 8, 9, 10, 11, 12, 13, 14, 15, 16, 17, 18, 19, 20, 21, 22, 23, 24, 25, 26, 27, 28, 29, 30, 31, 32, 33, 34, 35, 36, 37, 38, 39, 40, 41, 42, 43, 44, 45, 46, 47, 48, 49, 50, 51, 52, 53, 54, 55, 56, 57, 58, 59, 60, 61, 62, 63, 64, 65, 66, 67, 68, 69, 70, 71, 72, 73, 74, 75, 76, 77, 78, 79, 80, 81, 82, 83, 84, 85, 86, 87, 88, 89, 90, 91, 92, 93, 94, 95, 96, 97, 98, 99, 100, 101, 102, 103, 104, 105, 106, 107, 108, 109, 110, 111, 112, 113, 114, 115, 116, 117, 118, 119, 120, 121, 122, 123, 124, 125, 126, 127, 128, 129, 130, 131, 132, 133, 134, 135, 136, 137, 138, 139, 140, 141, 142, 143, 144, 145, 146, 147, 148, 149, 150, 151, 152, 153, 154, 155, 156, 157, 158, 159, 160, 161, 162, 163, 164, 165, 166, 167, 168, 169, 170, 171, 172, 173, 174, 175, 176, 177, 178, 179, 180, 181, 182, 183, 184, 185, 186, 187, 188, 189, 190, 191, 192, 193, 194, 195, 196, 197, 198, 199, 200, 201, 202, 203, 204, 205, 206, 207, 208, 209, 210, 211, 212, 213, 214, 215, 216, 217, 218, 219, 220, 221, 222, 223, 224, 225, 226, 227, 228, 229, 230, 231, 232, 233, 234, 235, 236, 237, 238, 239, 240, 241, 242, 243, 244, 245, 246, 247, 248, 249, 250, 251, 252, 253, 254, 255, 256, 257, 258, 259, 260, 261, 262, 263, 264, 265, 266, 267, 268, 269, 270, 271, 272, 273, 274, 275, 276, 277, 278, 279, 280, 281, 282, 283, 284, 285, 286, 287, 288, 289, 290, 291, 292, 293, 294, 295, 296, 297, 298, 299, 300, 301, 302, 303, 304, 305, 306, 307, 308, 309, 310, 311, 312, 313, 314, 315, 316, 317, 318, 319, 320, 321, 322, 323, 324, 325, 326, 327, 328, 329, 330, 331, 332, 333, 334, 335, 336, 337, 338, 339, 340, 341, 342, 343, 344, 345, 346, 347, 348, 349, 350, 351, 352, 353, 354, 355, 356, 357, 358, 359, 360, 361, 362, 363, 364, 365, 366, 367, 368, 369, 370, 371, 372, 373, 374, 375, 376, 377, 378, 379, 380, 381, 382, 383, 384, 385, 386, 387, 388, 389, 390, 391, 392, 393, 394, 395, 396, 397, 398, 399, 400, 401, 402, 403, 404, 405, 406, 407, 408, 409, 410, 411, 412, 413, 414, 415, 416, 417, 418, 419, 420, 421, 422, 423, 424, 425, 426, 427, 428, 429, 430, 431, 432, 433, 434, 435, 436, 437],
      "AcquisitionTime": ["134346.500000", "134348.500000", "134350.500000", "134352.500000", "134354.500000", "134356.500000", "134358.500000", "134400.500000", "134402.500000", "134404.500000", "134406.500000", "134408.500000", "134410.500000", "134412.500000", "134414.500000", "134416.500000", "134418.500000", "134420.500000", "134422.500000", "134424.500000", "134426.500000", "134428.500000", "134430.500000", "134432.500000", "134434.500000", "134436.500000", "134438.500000", "134440.500000", "134442.500000", "134444.500000", "134446.500000", "134448.500000", "134450.500000", "134452.500000", "134454.500000", "134456.500000", "134458.500000", "134500.500000", "134502.500000", "134504.500000", "134506.500000", "134508.500000", "134510.500000", "134512.500000", "134514.500000", "134516.500000", "134518.500000", "134520.500000", "134522.500000", "134524.500000", "134526.500000", "134528.500000", "134530.500000", "134532.500000", "134534.500000", "134536.500000", "134538.500000", "134540.500000", "134542.500000", "134544.500000", "134546.500000", "134548.500000", "134550.500000", "134552.500000", "134554.500000", "134556.500000", "134558.500000", "134600.500000", "134602.500000", "134604.500000", "134606.500000", "134608.500000", "134610.500000", "134612.500000", "134614.500000", "134616.500000", "134618.500000", "134620.500000", "134622.500000", "134624.500000", "134626.500000", "134628.500000", "134630.500000", "134632.500000", "134634.500000", "134636.500000", "134638.500000", "134640.500000", "134642.500000", "134644.500000", "134646.500000", "134648.500000", "134650.500000", "134652.500000", "134654.500000", "134656.500000", "134658.500000", "134700.500000", "134702.500000", "134704.500000", "134706.500000", "134708.500000", "134710.500000", "134712.500000", "134714.500000", "134716.500000", "134718.500000", "134720.500000", "134722.500000", "134724.500000", "134726.500000", "134728.500000", "134730.500000", "134732.500000", "134734.500000", "134736.500000", "134738.500000", "134740.500000", "134742.500000", "134744.500000", "134746.500000", "134748.500000", "134750.500000", "134752.500000", "134754.500000", "134756.500000", "134758.500000", "134800.500000", "134802.500000", "134804.500000", "134806.500000", "134808.500000", "134810.500000", "134812.500000", "134814.500000", "134816.500000", "134818.500000", "134820.500000", "134822.500000", "134824.500000", "134826.500000", "134828.500000", "134830.500000", "134832.500000", "134834.500000", "134836.500000", "134838.500000", "134840.500000", "134842.500000", "134844.500000", "134846.500000", "134848.500000", "134850.500000", "134852.500000", "134854.500000", "134856.500000", "134858.500000", "134900.500000", "134902.500000", "134904.500000", "134906.500000", "134908.500000", "134910.500000", "134912.500000", "134914.500000", "134916.500000", "134918.500000", "134920.500000", "134922.500000", "134924.500000", "134926.500000", "134928.500000", "134930.500000", "134932.500000", "134934.500000", "134936.500000", "134938.500000", "134940.500000", "134942.500000", "134944.500000", "134946.500000", "134948.500000", "134950.500000", "134952.500000", "134954.500000", "134956.500000", "134958.500000", "135000.500000", "135002.500000", "135004.500000", "135006.500000", "135008.500000", "135010.500000", "135012.500000", "135014.500000", "135016.500000", "135018.500000", "135020.500000", "135022.500000", "135024.500000", "135026.500000", "135028.500000", "135030.500000", "135032.500000", "135034.500000", "135036.500000", "135038.500000", "135040.500000", "135042.500000", "135044.500000", "135046.500000", "135048.500000", "135050.500000", "135052.500000", "135054.500000", "135056.500000", "135058.500000", "135100.500000", "135102.500000", "135104.500000", "135106.500000", "135108.500000", "135110.500000", "135112.500000", "135114.500000", "135116.500000", "135118.500000", "135120.500000", "135122.500000", "135124.500000", "135126.500000", "135128.500000", "135130.500000", "135132.500000", "135134.500000", "135136.500000", "135138.500000", "135140.500000", "135142.500000", "135144.500000", "135146.500000", "135148.500000", "135150.500000", "135152.500000", "135154.500000", "135156.500000", "135158.500000", "135200.500000", "135202.500000", "135204.500000", "135206.500000", "135208.500000", "135210.500000", "135212.500000", "135214.500000", "135216.500000", "135218.500000", "135220.500000", "135222.500000", "135224.500000", "135226.500000", "135228.500000", "135230.500000", "135232.500000", "135234.500000", "135236.500000", "135238.500000", "135240.500000", "135242.500000", "135244.500000", "135246.500000", "135248.500000", "135250.500000", "135252.500000", "135254.500000", "135256.500000", "135258.500000", "135300.500000", "135302.500000", "135304.500000", "135306.500000", "135308.500000", "135310.500000", "135312.500000", "135314.500000", "135316.500000", "135318.500000", "135320.500000", "135322.500000", "135324.500000", "135326.500000", "135328.500000", "135330.500000", "135332.500000", "135334.500000", "135336.500000", "135338.500000", "135340.500000", "135342.500000", "135344.500000", "135346.500000", "135348.500000", "135350.500000", "135352.500000", "135354.500000", "135356.500000", "135358.500000", "135400.500000", "135402.500000", "135404.500000", "135406.500000", "135408.500000", "135410.500000", "135412.500000", "135414.500000", "135416.500000", "135418.500000", "135420.500000", "135422.500000", "135424.500000", "135426.500000", "135428.500000", "135430.500000", "135432.500000", "135434.500000", "135436.500000", "135438.500000", "135440.500000", "135442.500000", "135444.500000", "135446.500000", "135448.500000", "135450.500000", "135452.500000", "135454.500000", "135456.500000", "135458.500000", "135500.500000", "135502.500000", "135504.500000", "135506.500000", "135508.500000", "135510.500000", "135512.500000", "135514.500000", "135516.500000", "135518.500000", "135520.500000", "135522.500000", "135524.500000", "135526.500000", "135528.500000", "135530.500000", "135532.500000", "135534.500000", "135536.500000", "135538.500000", "135540.500000", "135542.500000", "135544.500000", "135546.500000", "135548.500000", "135550.500000", "135552.500000", "135554.500000", "135556.500000", "135558.500000", "135600.500000", "135602.500000", "135604.500000", "135606.500000", "135608.500000", "135610.500000", "135612.500000", "135614.500000", "135616.500000", "135618.500000", "135620.500000", "135622.500000", "135624.500000", "135626.500000", "135628.500000", "135630.500000", "135632.500000", "135634.500000", "135636.500000", "135638.500000", "135640.500000", "135642.500000", "135644.500000", "135646.500000", "135648.500000", "135650.500000", "135652.500000", "135654.500000", "135656.500000", "135658.500000", "135700.500000", "135702.500000", "135704.500000", "135706.500000", "135708.500000", "135710.500000", "135712.500000", "135714.500000", "135716.500000", "135718.500000", "135720.500000", "135722.500000", "135724.500000", "135726.500000", "135728.500000", "135730.500000", "135732.500000", "135734.500000", "135736.500000", "135738.500000", "135740.500000", "135742.500000", "135744.500000", "135746.500000", "135748.500000", "135750.500000", "135752.500000", "135754.500000", "135756.500000", "135758.500000", "135800.500000", "135802.500000", "135804.500000", "135806.500000", "135808.500000", "135810.500000", "135812.500000", "135814.500000", "135816.500000", "135818.500000"],
      "ContentTime": ["134431.306000", "134431.310000", "134431.313000", "134431.315000", "134431.327000", "134431.330000", "134431.332000", "134431.335000", "134431.338000", "134431.340000", "134431.343000", "134431.346000", "134431.348000", "134431.351000", "134431.354000", "134431.357000", "134431.359000", "134431.374000", "134431.377000", "134431.383000", "134431.385000", "134431.388000", "134511.302000", "134511.316000", "134511.318000", "134511.321000", "134511.324000", "134511.327000", "134511.329000", "134511.332000", "134511.335000", "134511.337000", "134511.340000", "134511.343000", "134511.345000", "134511.348000", "134511.351000", "134511.353000", "134511.356000", "134511.359000", "134511.362000", "134511.364000", "134551.302000", "134551.305000", "134551.307000", "134551.310000", "134551.313000", "134551.315000", "134551.335000", "134551.338000", "134551.340000", "134551.343000", "134551.346000", "134551.348000", "134551.351000", "134551.354000", "134551.356000", "134551.359000", "134551.362000", "134551.365000", "134551.367000", "134551.370000", "134631.302000", "134631.304000", "134631.307000", "134631.310000", "134631.313000", "134631.315000", "134631.318000", "134631.321000", "134631.324000", "134631.326000", "134631.329000", "134631.331000", "134631.334000", "134631.337000", "134631.340000", "134631.342000", "134631.345000", "134631.348000", "134631.350000", "134631.353000", "134711.302000", "134711.304000", "134711.307000", "134711.310000", "134711.313000", "134711.315000", "134711.318000", "134711.321000", "134711.324000", "134711.326000", "134711.329000", "134711.332000", "134711.334000", "134711.337000", "134711.340000", "134711.342000", "134711.345000", "134711.348000", "134711.350000", "134711.353000", "134751.302000", "134751.304000", "134751.307000", "134751.310000", "134751.313000", "134751.315000", "134751.318000", "134751.321000", "134751.323000", "134751.326000", "134751.329000", "134751.331000", "134751.334000", "134751.337000", "134751.339000", "134751.342000", "134751.345000", "134751.347000", "134751.350000", "134751.353000", "134831.301000", "134831.304000", "134831.306000", "134831.309000", "134831.312000", "134831.314000", "134831.317000", "134831.320000", "134831.323000", "134831.325000", "134831.328000", "134831.330000", "134831.333000", "134831.336000", "134831.339000", "134831.341000", "134831.344000", "134831.347000", "134831.349000", "134831.352000", "134851.302000", "134851.305000", "134851.307000", "134851.310000", "134851.313000", "134851.316000", "134851.318000", "134851.321000", "134851.324000", "134851.327000", "134931.302000", "134931.304000", "134931.307000", "134931.310000", "134931.313000", "134931.315000", "134931.318000", "134931.321000", "134931.324000", "134931.326000", "134931.329000", "134931.332000", "134931.334000", "134931.337000", "134931.340000", "134931.342000", "134931.345000", "134931.348000", "134931.351000", "134931.353000", "135011.302000", "135011.305000", "135011.307000", "135011.310000", "135011.313000", "135011.315000", "135011.318000", "135011.321000", "135011.324000", "135011.326000", "135011.329000", "135011.332000", "135011.334000", "135011.337000", "135011.340000", "135011.343000", "135011.345000", "135011.348000", "135011.351000", "135011.353000", "135051.301000", "135051.304000", "135051.306000", "135051.309000", "135051.312000", "135051.314000", "135051.317000", "135051.320000", "135051.322000", "135051.325000", "135051.328000", "135051.331000", "135051.333000", "135051.336000", "135051.339000", "135051.341000", "135051.344000", "135051.347000", "135051.349000", "135051.352000", "135131.302000", "135131.305000", "135131.307000", "135131.310000", "135131.313000", "135131.315000", "135131.323000", "135131.325000", "135131.328000", "135131.331000", "135131.334000", "135131.336000", "135131.339000", "135131.341000", "135131.344000", "135131.347000", "135131.350000", "135131.352000", "135131.355000", "135131.358000", "135211.302000", "135211.304000", "135211.307000", "135211.310000", "135211.313000", "135211.315000", "135211.318000", "135211.321000", "135211.324000", "135211.326000", "135211.329000", "135211.332000", "135211.334000", "135211.337000", "135211.340000", "135211.342000", "135211.345000", "135211.348000", "135211.351000", "135211.353000", "135251.302000", "135251.305000", "135251.307000", "135251.321000", "135251.324000", "135251.327000", "135251.330000", "135251.332000", "135251.335000", "135251.337000", "135251.340000", "135251.343000", "135251.346000", "135251.348000", "135251.351000", "135251.354000", "135251.356000", "135251.359000", "135251.362000", "135251.365000", "135331.302000", "135331.305000", "135331.307000", "135331.310000", "135331.313000", "135331.315000", "135331.318000", "135331.321000", "135331.323000", "135331.326000", "135331.329000", "135331.332000", "135331.334000", "135331.337000", "135331.340000", "135331.342000", "135331.345000", "135331.348000", "135331.351000", "135331.353000", "135411.302000", "135411.305000", "135411.307000", "135411.310000", "135411.313000", "135411.315000", "135411.318000", "135411.321000", "135411.324000", "135411.326000", "135411.329000", "135411.332000", "135411.334000", "135411.337000", "135411.340000", "135411.343000", "135411.345000", "135411.348000", "135411.351000", "135411.353000", "135451.302000", "135451.304000", "135451.307000", "135451.310000", "135451.313000", "135451.315000", "135451.318000", "135451.321000", "135451.324000", "135451.326000", "135451.329000", "135451.332000", "135451.334000", "135451.337000", "135451.340000", "135451.343000", "135451.345000", "135451.348000", "135451.351000", "135451.353000", "135531.301000", "135531.303000", "135531.306000", "135531.309000", "135531.312000", "135531.314000", "135531.317000", "135531.320000", "135531.323000", "135531.325000", "135531.328000", "135531.331000", "135531.334000", "135531.336000", "135531.339000", "135531.342000", "135531.344000", "135531.347000", "135531.350000", "135531.353000", "135611.302000", "135611.305000", "135611.307000", "135611.310000", "135611.313000", "135611.315000", "135611.318000", "135611.321000", "135611.324000", "135611.326000", "135611.329000", "135611.332000", "135611.334000", "135611.337000", "135611.340000", "135611.343000", "135611.345000", "135611.348000", "135611.351000", "135611.353000", "135651.302000", "135651.304000", "135651.307000", "135651.310000", "135651.313000", "135651.315000", "135651.318000", "135651.321000", "135651.323000", "135651.326000", "135651.329000", "135651.332000", "135651.334000", "135651.337000", "135651.340000", "135651.342000", "135651.345000", "135651.348000", "135651.350000", "135651.353000", "135731.302000", "135731.305000", "135731.307000", "135731.310000", "135731.313000", "135731.316000", "135731.318000", "135731.321000", "135731.324000", "135731.326000", "135731.329000", "135731.332000", "135731.334000", "135731.337000", "135731.340000", "135731.342000", "135731.345000", "135731.348000", "135731.351000", "135731.354000", "135811.302000", "135811.304000", "135811.307000", "135811.310000", "135811.313000", "135811.315000", "135811.318000", "135811.321000", "135811.324000", "135811.326000", "135811.329000", "135811.332000", "135811.334000", "135811.337000", "135811.340000", "135811.343000", "135811.345000", "135811.348000", "135811.351000", "135811.353000", "135820.226000", "135820.229000", "135820.233000", "135820.235000", "135820.238000"],
      "DataSetTrailingPadding": [
        "\u0000\u0000\u0000\u0000\u0000\u0000\u0000\u0000\u0000\u0000\u0000\u0000\u0000\u0000\u0000\u0000\u0000\u0000\u0000\u0000\u0000\u0000\u0000\u0000\u0000\u0000\u0000\u0000\u0000\u0000\u0000\u0000\u0000\u0000\u0000\u0000\u0000\u0000\u0000\u0000\u0000\u0000\u0000\u0000\u0000\u0000\u0000\u0000\u0000\u0000\u0000\u0000\u0000\u0000\u0000\u0000\u0000\u0000\u0000\u0000\u0000\u0000\u0000\u0000\u0000\u0000\u0000\u0000\u0000\u0000\u0000\u0000\u0000\u0000\u0000\u0000\u0000\u0000\u0000\u0000\u0000\u0000\u0000\u0000\u0000\u0000\u0000\u0000\u0000\u0000\u0000\u0000\u0000\u0000\u0000\u0000\u0000\u0000\u0000\u0000\u0000\u0000\u0000\u0000\u0000\u0000\u0000\u0000\u0000\u0000\u0000\u0000\u0000\u0000\u0000\u0000\u0000\u0000\u0000\u0000\u0000\u0000\u0000\u0000\u0000\u0000\u0000\u0000\u0000\u0000\u0000\u0000\u0000\u0000\u0000\u0000\u0000\u0000\u0000\u0000\u0000\u0000\u0000\u0000\u0000\u0000\u0000\u0000\u0000\u0000\u0000\u0000\u0000\u0000\u0000\u0000\u0000\u0000\u0000\u0000\u0000\u0000\u0000\u0000\u0000\u0000\u0000\u0000\u0000\u0000\u0000\u0000\u0000\u0000\u0000\u0000\u0000\u0000\u0000\u0000\u0000\u0000\u0000\u0000\u0000\u0000\u0000\u0000\u0000\u0000\u0000\u0000\u0000\u0000\u0000\u0000\u0000\u0000\u0000\u0000\u0000\u0000\u0000\u0000\u0000\u0000\u0000\u0000\u0000\u0000\u0000\u0000\u0000\u0000\u0000\u0000\u0000\u0000\u0000\u0000\u0000\u0000\u0000\u0000\u0000\u0000\u0000\u0000\u0000\u0000\u0000\u0000\u0000\u0000\u0000\u0000\u0000\u0000\u0000\u0000\u0000\u0000\u0000\u0000\u0000\u0000\u0000\u0000\u0000\u0000\u0000\u0000\u0000\u0000\u0000\u0000\u0000\u0000\u0000\u0000\u0000\u0000\u0000\u0000\u0000\u0000\u0000\u0000\u0000\u0000\u0000\u0000\u0000\u0000\u0000\u0000\u0000\u0000\u0000\u0000\u0000\u0000\u0000\u0000\u0000\u0000\u0000\u0000\u0000\u0000\u0000\u0000\u0000\u0000\u0000\u0000\u0000\u0000\u0000\u0000\u0000\u0000\u0000\u0000\u0000\u0000",
        "\u0000\u0000\u0000\u0000\u0000\u0000\u0000\u0000\u0000\u0000\u0000\u0000\u0000\u0000\u0000\u0000\u0000\u0000\u0000\u0000\u0000\u0000\u0000\u0000\u0000\u0000\u0000\u0000\u0000\u0000\u0000\u0000\u0000\u0000\u0000\u0000\u0000\u0000\u0000\u0000\u0000\u0000\u0000\u0000\u0000\u0000\u0000\u0000\u0000\u0000\u0000\u0000\u0000\u0000\u0000\u0000\u0000\u0000\u0000\u0000\u0000\u0000\u0000\u0000\u0000\u0000\u0000\u0000\u0000\u0000\u0000\u0000\u0000\u0000\u0000\u0000\u0000\u0000\u0000\u0000\u0000\u0000\u0000\u0000\u0000\u0000\u0000\u0000\u0000\u0000\u0000\u0000\u0000\u0000\u0000\u0000\u0000\u0000\u0000\u0000\u0000\u0000\u0000\u0000\u0000\u0000\u0000\u0000\u0000\u0000\u0000\u0000\u0000\u0000\u0000\u0000\u0000\u0000\u0000\u0000\u0000\u0000\u0000\u0000\u0000\u0000\u0000\u0000\u0000\u0000\u0000\u0000\u0000\u0000\u0000\u0000\u0000\u0000\u0000\u0000\u0000\u0000\u0000\u0000\u0000\u0000\u0000\u0000\u0000\u0000\u0000\u0000\u0000\u0000\u0000\u0000\u0000\u0000\u0000\u0000\u0000\u0000\u0000\u0000\u0000\u0000\u0000\u0000\u0000\u0000\u0000\u0000\u0000\u0000\u0000\u0000\u0000\u0000\u0000\u0000\u0000\u0000\u0000\u0000\u0000\u0000\u0000\u0000\u0000\u0000\u0000\u0000\u0000\u0000\u0000\u0000\u0000\u0000\u0000\u0000\u0000\u0000\u0000\u0000\u0000\u0000\u0000\u0000\u0000\u0000\u0000\u0000\u0000\u0000\u0000\u0000\u0000\u0000\u0000\u0000\u0000\u0000\u0000\u0000\u0000\u0000\u0000\u0000\u0000\u0000\u0000\u0000\u0000\u0000\u0000\u0000\u0000\u0000\u0000\u0000\u0000\u0000\u0000\u0000\u0000\u0000\u0000\u0000\u0000\u0000\u0000\u0000\u0000\u0000\u0000\u0000\u0000\u0000\u0000\u0000\u0000\u0000\u0000\u0000\u0000\u0000\u0000\u0000\u0000\u0000\u0000\u0000\u0000\u0000\u0000\u0000\u0000\u0000\u0000\u0000\u0000\u0000\u0000\u0000\u0000\u0000\u0000\u0000\u0000\u0000\u0000\u0000\u0000\u0000\u0000\u0000\u0000\u0000\u0000\u0000\u0000\u0000\u0000\u0000",
        "\u0000\u0000\u0000\u0000\u0000\u0000\u0000\u0000\u0000\u0000\u0000\u0000\u0000\u0000\u0000\u0000\u0000\u0000\u0000\u0000\u0000\u0000\u0000\u0000\u0000\u0000\u0000\u0000\u0000\u0000\u0000\u0000\u0000\u0000\u0000\u0000\u0000\u0000\u0000\u0000\u0000\u0000\u0000\u0000\u0000\u0000\u0000\u0000\u0000\u0000\u0000\u0000\u0000\u0000\u0000\u0000\u0000\u0000\u0000\u0000\u0000\u0000\u0000\u0000\u0000\u0000\u0000\u0000\u0000\u0000\u0000\u0000\u0000\u0000\u0000\u0000\u0000\u0000\u0000\u0000\u0000\u0000\u0000\u0000\u0000\u0000\u0000\u0000\u0000\u0000\u0000\u0000\u0000\u0000\u0000\u0000\u0000\u0000\u0000\u0000\u0000\u0000\u0000\u0000\u0000\u0000\u0000\u0000\u0000\u0000\u0000\u0000\u0000\u0000\u0000\u0000\u0000\u0000\u0000\u0000\u0000\u0000\u0000\u0000\u0000\u0000\u0000\u0000\u0000\u0000\u0000\u0000\u0000\u0000\u0000\u0000\u0000\u0000\u0000\u0000\u0000\u0000\u0000\u0000\u0000\u0000\u0000\u0000\u0000\u0000\u0000\u0000\u0000\u0000\u0000\u0000\u0000\u0000\u0000\u0000\u0000\u0000\u0000\u0000\u0000\u0000\u0000\u0000\u0000\u0000\u0000\u0000\u0000\u0000\u0000\u0000\u0000\u0000\u0000\u0000\u0000\u0000\u0000\u0000\u0000\u0000\u0000\u0000\u0000\u0000\u0000\u0000\u0000\u0000\u0000\u0000\u0000\u0000\u0000\u0000\u0000\u0000\u0000\u0000\u0000\u0000\u0000\u0000\u0000\u0000\u0000\u0000\u0000\u0000\u0000\u0000\u0000\u0000\u0000\u0000\u0000\u0000\u0000\u0000\u0000\u0000\u0000\u0000\u0000\u0000\u0000\u0000\u0000\u0000\u0000\u0000\u0000\u0000\u0000\u0000\u0000\u0000\u0000\u0000\u0000\u0000\u0000\u0000\u0000\u0000\u0000\u0000\u0000\u0000\u0000\u0000\u0000\u0000\u0000\u0000\u0000\u0000\u0000\u0000\u0000\u0000\u0000\u0000\u0000\u0000\u0000\u0000\u0000\u0000\u0000\u0000\u0000\u0000\u0000\u0000\u0000\u0000\u0000\u0000\u0000\u0000\u0000\u0000\u0000\u0000\u0000\u0000\u0000\u0000\u0000\u0000\u0000\u0000\u0000\u0000\u0000\u0000\u0000\u0000",
        "\u0000\u0000\u0000\u0000\u0000\u0000\u0000\u0000\u0000\u0000\u0000\u0000\u0000\u0000\u0000\u0000\u0000\u0000\u0000\u0000\u0000\u0000\u0000\u0000\u0000\u0000\u0000\u0000\u0000\u0000\u0000\u0000\u0000\u0000\u0000\u0000\u0000\u0000\u0000\u0000\u0000\u0000\u0000\u0000\u0000\u0000\u0000\u0000\u0000\u0000\u0000\u0000\u0000\u0000\u0000\u0000\u0000\u0000\u0000\u0000\u0000\u0000\u0000\u0000\u0000\u0000\u0000\u0000\u0000\u0000\u0000\u0000\u0000\u0000\u0000\u0000\u0000\u0000\u0000\u0000\u0000\u0000\u0000\u0000\u0000\u0000\u0000\u0000\u0000\u0000\u0000\u0000\u0000\u0000\u0000\u0000\u0000\u0000\u0000\u0000\u0000\u0000\u0000\u0000\u0000\u0000\u0000\u0000\u0000\u0000\u0000\u0000\u0000\u0000\u0000\u0000\u0000\u0000\u0000\u0000\u0000\u0000\u0000\u0000\u0000\u0000\u0000\u0000\u0000\u0000\u0000\u0000\u0000\u0000\u0000\u0000\u0000\u0000\u0000\u0000\u0000\u0000\u0000\u0000\u0000\u0000\u0000\u0000\u0000\u0000\u0000\u0000\u0000\u0000\u0000\u0000\u0000\u0000\u0000\u0000\u0000\u0000\u0000\u0000\u0000\u0000\u0000\u0000\u0000\u0000\u0000\u0000\u0000\u0000\u0000\u0000\u0000\u0000\u0000\u0000\u0000\u0000\u0000\u0000\u0000\u0000\u0000\u0000\u0000\u0000\u0000\u0000\u0000\u0000\u0000\u0000\u0000\u0000\u0000\u0000\u0000\u0000\u0000\u0000\u0000\u0000\u0000\u0000\u0000\u0000\u0000\u0000\u0000\u0000\u0000\u0000\u0000\u0000\u0000\u0000\u0000\u0000\u0000\u0000\u0000\u0000\u0000\u0000\u0000\u0000\u0000\u0000\u0000\u0000\u0000\u0000\u0000\u0000\u0000\u0000\u0000\u0000\u0000\u0000\u0000\u0000\u0000\u0000\u0000\u0000\u0000\u0000\u0000\u0000\u0000\u0000\u0000\u0000\u0000\u0000\u0000\u0000\u0000\u0000\u0000\u0000\u0000\u0000\u0000\u0000\u0000\u0000\u0000\u0000\u0000\u0000\u0000\u0000\u0000\u0000\u0000\u0000\u0000\u0000\u0000\u0000\u0000\u0000\u0000\u0000\u0000\u0000\u0000\u0000\u0000\u0000\u0000\u0000\u0000\u0000\u0000\u0000\u0000\u0000",
