{
  "AcquisitionMatrixPE": 70,
  "AcquisitionNumber": 1,
  "AcquisitionTime": "13:27:38.047500",
  "BandwidthPerPixelPhaseEncode": 51.948,
  "BaseResolution": 70,
  "BodyPartExamined": "HEAD",
  "CoilCombinationMethod": "Sum of Squares",
  "ConsistencyInfo": "N4_VE11C_LATEST_20160120",
  "ConversionSoftware": "dcm2niix",
  "ConversionSoftwareVersion": "v1.0.20220720",
  "DerivedVendorReportedEchoSpacing": 0.000550001,
  "DeviceSerialNumber": "66061",
  "DwellTime": 3.3e-06,
  "EchoTime": 0.022,
  "EchoTrainLength": 35,
  "EffectiveEchoSpacing": 0.000275,
  "FlipAngle": 90,
  "HeudiconvVersion": "1.1.1",
  "ImageOrientationPatientDICOM": [0.997017, 0.0125234, 0.0761624, -0.0012181, 0.989179, -0.146705],
  "ImageOrientationText": "Tra>Cor(-8.4)>Sag(4.4)",
  "ImageType": [
    "ORIGINAL",
    "PRIMARY",
    "M",
    "ND",
    "NORM",
    "MOSAIC"
],
  "ImagingFrequency": 123.254,
  "InPlanePhaseEncodingDirectionDICOM": "COL",
  "InstitutionAddress": "Street StreetNo,City/1c4204/,District,KR,ZIP",
  "InstitutionName": "SKKU",
  "InstitutionalDepartmentName": "Department",
  "MRAcquisitionType": "2D",
  "MagneticFieldStrength": 3,
  "Manufacturer": "Siemens",
  "ManufacturersModelName": "Prisma",
  "MatrixCoilMode": "GRAPPA",
  "Modality": "MR",
  "NonlinearGradientCorrection": false,
  "ParallelReductionFactorInPlane": 2,
  "PartialFourier": 1,
  "PatientPosition": "HFS",
  "PercentPhaseFOV": 100,
  "PercentSampling": 100,
  "PhaseEncodingDirection": "j-",
  "PhaseEncodingSteps": 70,
  "PhaseResolution": 1,
  "PixelBandwidth": 2165,
  "ProcedureStepDescription": "Head^PI:Others",
  "ProtocolName": "BOLD_ep2d_3x3x3_dimension1",
  "PulseSequenceDetails": "%SiemensSeq%\\ep2d_pace",
  "ReceiveCoilActiveElements": "HC1-7",
  "ReceiveCoilName": "HeadNeck_64",
  "ReconMatrixPE": 70,
  "RefLinesPE": 24,
  "RepetitionTime": 2,
  "SAR": 0.128297,
  "ScanOptions": "FS",
  "ScanningSequence": "EP",
  "SequenceName": "*epfid2d1_70",
  "SequenceVariant": "SK",
  "SeriesDescription": "BOLD_ep2d_3x3x3_dimension1",
  "SeriesNumber": 8,
  "ShimSetting": [5057, 3657, 4322, 340, -102, -62, 2, 86],
  "SliceThickness": 3,
  "SliceTiming": [0.99, 0, 1.0375, 0.0475, 1.085, 0.095, 1.1325, 0.1425, 1.1775, 0.1875, 1.225, 0.235, 1.2725, 0.2825, 1.32, 0.33, 1.3675, 0.3775, 1.415, 0.425, 1.4625, 0.4725, 1.5075, 0.5175, 1.555, 0.565, 1.6025, 0.6125, 1.65, 0.66, 1.6975, 0.7075, 1.745, 0.755, 1.7925, 0.8025, 1.8375, 0.8475, 1.885, 0.895, 1.9325, 0.9425],
  "SoftwareVersions": "syngo MR E11",
  "SpacingBetweenSlices": 3,
  "StationName": "AWP66061",
  "TaskName": "dimension",
  "TotalReadoutTime": 0.018975,
  "TxRefAmp": 222.282,
  "dcmmeta_affine": [
    [-2.9910502433776855, -0.0036543102469295263, 0.23152659833431244, 105.2288589477539],
    [-0.03757023066282272, 2.967538356781006, -0.4385248124599457, -88.20213317871094],
    [0.22848717868328094, 0.4401160776615143, 2.9587314128875732, -63.66090393066406],
    [0.0, 0.0, 0.0, 1.0]
],
  "dcmmeta_reorient_transform": [
    [0.0, -1.0, 0.0, 69.0],
    [1.0, 0.0, 0.0, 0.0],
    [0.0, 0.0, -1.0, 41.0],
    [0.0, 0.0, 0.0, 1.0]
],
  "dcmmeta_shape": [70, 70, 42, 437],
  "dcmmeta_slice_dim": 2,
  "dcmmeta_version": 0.6,
  "global": {
    "const": {
      "AcquisitionMatrix": [70, 0, 0, 70],
      "AngioFlag": "N",
      "BitsAllocated": 16,
      "BitsStored": 12,
      "BodyPartExamined": "HEAD",
      "Columns": 490,
      "EchoNumbers": 1,
      "EchoTime": 22.0,
      "EchoTrainLength": 35,
      "FlipAngle": 90.0,
      "HighBit": 11,
      "ImageOrientationPatient": [0.99701677724183, 0.01252341081974, 0.07616239281793, -0.0012181034373, 0.9891794845476, -0.1467053631404],
      "ImagePositionPatient": [-741.82246283022, -729.65132825979, 132.45716881933],
      "ImageType": [
        "ORIGINAL",
        "PRIMARY",
        "M",
        "ND",
        "NORM",
        "MOSAIC"
],
      "ImagedNucleus": "1H",
      "ImagingFrequency": 123.254083,
      "InPlanePhaseEncodingDirection": "COL",
      "MRAcquisitionType": "2D",
      "MagneticFieldStrength": 3.0,
      "Manufacturer": "SIEMENS",
      "ManufacturerModelName": "Prisma",
      "Modality": "MR",
      "NumberOfAverages": 1.0,
      "NumberOfPhaseEncodingSteps": 70,
      "PercentPhaseFieldOfView": 100.0,
      "PercentSampling": 100.0,
      "PerformedProcedureStepStartTime": "123928.848000",
      "PhotometricInterpretation": "MONOCHROME2",
      "PixelBandwidth": 2165.0,
      "PixelRepresentation": 0,
      "PixelSpacing": [3.0, 3.0],
      "ProtocolName": "BOLD_ep2d_3x3x3_dimension1",
      "RepetitionTime": 2000.0,
      "Rows": 490,
      "SAR": 0.12829694978368,
      "SamplesPerPixel": 1,
      "ScanOptions": "FS",
      "ScanningSequence": "EP",
      "SequenceName": "*epfid2d1_70",
      "SequenceVariant": "SK",
      "SeriesDescription": "BOLD_ep2d_3x3x3_dimension1",
      "SeriesNumber": 8,
      "SeriesTime": "132833.186000",
      "SliceLocation": 81.228866061869,
      "SliceThickness": 3.0,
      "SmallestImagePixelValue": 0,
      "SoftwareVersions": "syngo MR E11",
      "SpacingBetweenSlices": 3.0000001013919,
      "SpecificCharacterSet": "ISO_IR 100",
      "StudyID": "1",
      "StudyTime": "123928.779000",
      "TransmitCoilName": "Body",
      "VariableFlipAngleFlag": "N",
      "WindowCenterWidthExplanation": "Algo1",
      "dBdt": 0.0},
    "slices": {}
  },
  "time": {
    "samples": {
      "AcquisitionNumber": [1, 2, 3, 4, 5, 6, 7, 8, 9, 10, 11, 12, 13, 14, 15, 16, 17, 18, 19, 20, 21, 22, 23, 24, 25, 26, 27, 28, 29, 30, 31, 32, 33, 34, 35, 36, 37, 38, 39, 40, 41, 42, 43, 44, 45, 46, 47, 48, 49, 50, 51, 52, 53, 54, 55, 56, 57, 58, 59, 60, 61, 62, 63, 64, 65, 66, 67, 68, 69, 70, 71, 72, 73, 74, 75, 76, 77, 78, 79, 80, 81, 82, 83, 84, 85, 86, 87, 88, 89, 90, 91, 92, 93, 94, 95, 96, 97, 98, 99, 100, 101, 102, 103, 104, 105, 106, 107, 108, 109, 110, 111, 112, 113, 114, 115, 116, 117, 118, 119, 120, 121, 122, 123, 124, 125, 126, 127, 128, 129, 130, 131, 132, 133, 134, 135, 136, 137, 138, 139, 140, 141, 142, 143, 144, 145, 146, 147, 148, 149, 150, 151, 152, 153, 154, 155, 156, 157, 158, 159, 160, 161, 162, 163, 164, 165, 166, 167, 168, 169, 170, 171, 172, 173, 174, 175, 176, 177, 178, 179, 180, 181, 182, 183, 184, 185, 186, 187, 188, 189, 190, 191, 192, 193, 194, 195, 196, 197, 198, 199, 200, 201, 202, 203, 204, 205, 206, 207, 208, 209, 210, 211, 212, 213, 214, 215, 216, 217, 218, 219, 220, 221, 222, 223, 224, 225, 226, 227, 228, 229, 230, 231, 232, 233, 234, 235, 236, 237, 238, 239, 240, 241, 242, 243, 244, 245, 246, 247, 248, 249, 250, 251, 252, 253, 254, 255, 256, 257, 258, 259, 260, 261, 262, 263, 264, 265, 266, 267, 268, 269, 270, 271, 272, 273, 274, 275, 276, 277, 278, 279, 280, 281, 282, 283, 284, 285, 286, 287, 288, 289, 290, 291, 292, 293, 294, 295, 296, 297, 298, 299, 300, 301, 302, 303, 304, 305, 306, 307, 308, 309, 310, 311, 312, 313, 314, 315, 316, 317, 318, 319, 320, 321, 322, 323, 324, 325, 326, 327, 328, 329, 330, 331, 332, 333, 334, 335, 336, 337, 338, 339, 340, 341, 342, 343, 344, 345, 346, 347, 348, 349, 350, 351, 352, 353, 354, 355, 356, 357, 358, 359, 360, 361, 362, 363, 364, 365, 366, 367, 368, 369, 370, 371, 372, 373, 374, 375, 376, 377, 378, 379, 380, 381, 382, 383, 384, 385, 386, 387, 388, 389, 390, 391, 392, 393, 394, 395, 396, 397, 398, 399, 400, 401, 402, 403, 404, 405, 406, 407, 408, 409, 410, 411, 412, 413, 414, 415, 416, 417, 418, 419, 420, 421, 422, 423, 424, 425, 426, 427, 428, 429, 430, 431, 432, 433, 434, 435, 436, 437],
      "AcquisitionTime": ["132738.047500", "132740.047500", "132742.047500", "132744.047500", "132746.047500", "132748.047500", "132750.047500", "132752.047500", "132754.047500", "132756.047500", "132758.047500", "132800.047500", "132802.047500", "132804.047500", "132806.047500", "132808.047500", "132810.047500", "132812.047500", "132814.047500", "132816.047500", "132818.047500", "132820.047500", "132822.047500", "132824.047500", "132826.047500", "132828.047500", "132830.047500", "132832.047500", "132834.047500", "132836.047500", "132838.047500", "132840.047500", "132842.047500", "132844.047500", "132846.047500", "132848.047500", "132850.047500", "132852.047500", "132854.047500", "132856.047500", "132858.047500", "132900.047500", "132902.047500", "132904.047500", "132906.047500", "132908.047500", "132910.047500", "132912.047500", "132914.047500", "132916.047500", "132918.047500", "132920.047500", "132922.047500", "132924.047500", "132926.047500", "132928.047500", "132930.047500", "132932.047500", "132934.047500", "132936.047500", "132938.047500", "132940.047500", "132942.047500", "132944.047500", "132946.047500", "132948.047500", "132950.047500", "132952.047500", "132954.047500", "132956.047500", "132958.047500", "133000.047500", "133002.047500", "133004.047500", "133006.047500", "133008.047500", "133010.047500", "133012.047500", "133014.047500", "133016.047500", "133018.047500", "133020.047500", "133022.047500", "133024.047500", "133026.047500", "133028.047500", "133030.047500", "133032.047500", "133034.047500", "133036.047500", "133038.047500", "133040.047500", "133042.047500", "133044.047500", "133046.047500", "133048.047500", "133050.047500", "133052.047500", "133054.047500", "133056.047500", "133058.047500", "133100.047500", "133102.047500", "133104.047500", "133106.047500", "133108.047500", "133110.047500", "133112.047500", "133114.047500", "133116.047500", "133118.047500", "133120.047500", "133122.047500", "133124.047500", "133126.047500", "133128.047500", "133130.047500", "133132.047500", "133134.047500", "133136.047500", "133138.047500", "133140.047500", "133142.047500", "133144.047500", "133146.047500", "133148.047500", "133150.047500", "133152.047500", "133154.047500", "133156.047500", "133158.047500", "133200.047500", "133202.047500", "133204.047500", "133206.047500", "133208.047500", "133210.047500", "133212.047500", "133214.047500", "133216.047500", "133218.047500", "133220.047500", "133222.047500", "133224.047500", "133226.047500", "133228.047500", "133230.047500", "133232.047500", "133234.047500", "133236.047500", "133238.047500", "133240.047500", "133242.047500", "133244.047500", "133246.047500", "133248.047500", "133250.047500", "133252.047500", "133254.047500", "133256.047500", "133258.047500", "133300.047500", "133302.047500", "133304.047500", "133306.047500", "133308.047500", "133310.047500", "133312.047500", "133314.047500", "133316.047500", "133318.047500", "133320.047500", "133322.047500", "133324.047500", "133326.047500", "133328.047500", "133330.047500", "133332.047500", "133334.047500", "133336.047500", "133338.047500", "133340.047500", "133342.047500", "133344.047500", "133346.047500", "133348.047500", "133350.047500", "133352.047500", "133354.047500", "133356.047500", "133358.047500", "133400.047500", "133402.047500", "133404.047500", "133406.047500", "133408.047500", "133410.047500", "133412.047500", "133414.047500", "133416.047500", "133418.047500", "133420.047500", "133422.047500", "133424.047500", "133426.047500", "133428.047500", "133430.047500", "133432.047500", "133434.047500", "133436.047500", "133438.047500", "133440.047500", "133442.047500", "133444.047500", "133446.047500", "133448.047500", "133450.047500", "133452.047500", "133454.047500", "133456.047500", "133458.047500", "133500.047500", "133502.047500", "133504.047500", "133506.047500", "133508.047500", "133510.047500", "133512.047500", "133514.047500", "133516.047500", "133518.047500", "133520.047500", "133522.047500", "133524.047500", "133526.047500", "133528.047500", "133530.047500", "133532.047500", "133534.047500", "133536.047500", "133538.047500", "133540.047500", "133542.047500", "133544.047500", "133546.047500", "133548.047500", "133550.047500", "133552.047500", "133554.047500", "133556.047500", "133558.047500", "133600.047500", "133602.047500", "133604.047500", "133606.047500", "133608.047500", "133610.047500", "133612.047500", "133614.047500", "133616.047500", "133618.047500", "133620.047500", "133622.047500", "133624.047500", "133626.047500", "133628.047500", "133630.047500", "133632.047500", "133634.047500", "133636.047500", "133638.047500", "133640.047500", "133642.047500", "133644.047500", "133646.047500", "133648.047500", "133650.047500", "133652.047500", "133654.047500", "133656.047500", "133658.047500", "133700.047500", "133702.047500", "133704.047500", "133706.047500", "133708.047500", "133710.047500", "133712.047500", "133714.047500", "133716.047500", "133718.047500", "133720.047500", "133722.047500", "133724.047500", "133726.047500", "133728.047500", "133730.047500", "133732.047500", "133734.047500", "133736.047500", "133738.047500", "133740.047500", "133742.047500", "133744.047500", "133746.047500", "133748.047500", "133750.047500", "133752.047500", "133754.047500", "133756.047500", "133758.047500", "133800.047500", "133802.047500", "133804.047500", "133806.047500", "133808.047500", "133810.047500", "133812.047500", "133814.047500", "133816.047500", "133818.047500", "133820.047500", "133822.047500", "133824.047500", "133826.047500", "133828.047500", "133830.047500", "133832.047500", "133834.047500", "133836.047500", "133838.047500", "133840.047500", "133842.047500", "133844.047500", "133846.047500", "133848.047500", "133850.047500", "133852.047500", "133854.047500", "133856.047500", "133858.047500", "133900.047500", "133902.047500", "133904.047500", "133906.047500", "133908.047500", "133910.047500", "133912.047500", "133914.047500", "133916.047500", "133918.047500", "133920.047500", "133922.047500", "133924.047500", "133926.047500", "133928.047500", "133930.047500", "133932.047500", "133934.047500", "133936.047500", "133938.047500", "133940.047500", "133942.047500", "133944.047500", "133946.047500", "133948.047500", "133950.047500", "133952.047500", "133954.047500", "133956.047500", "133958.047500", "134000.047500", "134002.047500", "134004.047500", "134006.047500", "134008.047500", "134010.047500", "134012.047500", "134014.047500", "134016.047500", "134018.047500", "134020.047500", "134022.047500", "134024.047500", "134026.047500", "134028.047500", "134030.047500", "134032.047500", "134034.047500", "134036.047500", "134038.047500", "134040.047500", "134042.047500", "134044.047500", "134046.047500", "134048.047500", "134050.047500", "134052.047500", "134054.047500", "134056.047500", "134058.047500", "134100.047500", "134102.047500", "134104.047500", "134106.047500", "134108.047500", "134110.047500", "134112.047500", "134114.047500", "134116.047500", "134118.047500", "134120.047500", "134122.047500", "134124.047500", "134126.047500", "134128.047500", "134130.047500", "134132.047500", "134134.047500", "134136.047500", "134138.047500", "134140.047500", "134142.047500", "134144.047500", "134146.047500", "134148.047500", "134150.047500", "134152.047500", "134154.047500", "134156.047500", "134158.047500", "134200.047500", "134202.047500", "134204.047500", "134206.047500", "134208.047500", "134210.047500"],
      "ContentTime": ["132833.189000", "132833.193000", "132833.196000", "132833.199000", "132833.201000", "132833.204000", "132833.207000", "132833.209000", "132833.212000", "132833.215000", "132833.217000", "132833.228000", "132833.231000", "132833.234000", "132833.237000", "132833.239000", "132833.242000", "132833.262000", "132833.264000", "132833.267000", "132833.270000", "132833.272000", "132833.275000", "132833.278000", "132833.280000", "132833.284000", "132833.286000", "132853.185000", "132853.188000", "132853.191000", "132853.193000", "132853.196000", "132853.199000", "132853.201000", "132853.204000", "132853.207000", "132853.209000", "132933.185000", "132933.188000", "132933.190000", "132933.193000", "132933.196000", "132933.198000", "132933.201000", "132933.204000", "132933.206000", "132933.209000", "132933.212000", "132933.214000", "132933.217000", "132933.220000", "132933.222000", "132933.225000", "132933.228000", "132933.231000", "132933.233000", "132933.236000", "133013.186000", "133013.189000", "133013.191000", "133013.194000", "133013.197000", "133013.199000", "133013.202000", "133013.205000", "133013.207000", "133013.210000", "133013.213000", "133013.216000", "133013.218000", "133013.221000", "133013.224000", "133013.226000", "133013.229000", "133013.232000", "133013.234000", "133013.237000", "133053.185000", "133053.188000", "133053.190000", "133053.193000", "133053.196000", "133053.198000", "133053.201000", "133053.204000", "133053.207000", "133053.209000", "133053.212000", "133053.215000", "133053.217000", "133053.220000", "133053.223000", "133053.225000", "133053.228000", "133053.231000", "133053.233000", "133053.236000", "133133.185000", "133133.188000", "133133.190000", "133133.193000", "133133.196000", "133133.198000", "133133.201000", "133133.204000", "133133.207000", "133133.209000", "133133.212000", "133133.215000", "133133.217000", "133133.220000", "133133.223000", "133133.225000", "133133.228000", "133133.231000", "133133.233000", "133133.236000", "133213.185000", "133213.188000", "133213.190000", "133213.193000", "133213.196000", "133213.198000", "133213.201000", "133213.204000", "133213.207000", "133213.209000", "133213.212000", "133213.224000", "133213.226000", "133213.229000", "133213.232000", "133213.235000", "133213.237000", "133213.240000", "133213.242000", "133213.245000", "133253.185000", "133253.188000", "133253.190000", "133253.193000", "133253.196000", "133253.198000", "133253.201000", "133253.204000", "133253.207000", "133253.209000", "133253.212000", "133253.215000", "133253.217000", "133253.220000", "133253.223000", "133253.225000", "133253.228000", "133253.231000", "133253.233000", "133253.236000", "133333.185000", "133333.188000", "133333.190000", "133333.193000", "133333.196000", "133333.198000", "133333.201000", "133333.204000", "133333.207000", "133333.217000", "133333.220000", "133333.222000", "133333.225000", "133333.228000", "133333.230000", "133333.233000", "133333.236000", "133333.239000", "133333.241000", "133333.244000", "133413.185000", "133413.188000", "133413.190000", "133413.193000", "133413.196000", "133413.198000", "133413.201000", "133413.204000", "133413.207000", "133413.209000", "133413.212000", "133413.215000", "133413.217000", "133413.220000", "133413.223000", "133413.226000", "133413.228000", "133413.231000", "133413.233000", "133413.236000", "133453.186000", "133453.189000", "133453.191000", "133453.194000", "133453.197000", "133453.199000", "133453.202000", "133453.205000", "133453.208000", "133453.210000", "133453.213000", "133453.216000", "133453.218000", "133453.221000", "133453.224000", "133453.226000", "133453.229000", "133453.232000", "133453.234000", "133453.237000", "133533.185000", "133533.188000", "133533.190000", "133533.193000", "133533.196000", "133533.199000", "133533.201000", "133533.204000", "133533.207000", "133533.209000", "133533.212000", "133533.215000", "133533.218000", "133533.220000", "133533.223000", "133533.232000", "133533.235000", "133533.238000", "133533.240000", "133533.243000", "133613.185000", "133613.188000", "133613.190000", "133613.193000", "133613.196000", "133613.199000", "133613.201000", "133613.204000", "133613.207000", "133613.210000", "133613.212000", "133613.215000", "133613.218000", "133613.221000", "133613.223000", "133613.226000", "133613.229000", "133613.232000", "133613.234000", "133613.237000", "133653.186000", "133653.189000", "133653.191000", "133653.194000", "133653.197000", "133653.199000", "133653.202000", "133653.205000", "133653.208000", "133653.210000", "133653.213000", "133653.216000", "133653.218000", "133653.221000", "133653.224000", "133653.244000", "133653.247000", "133653.250000", "133653.252000", "133653.255000", "133733.185000", "133733.188000", "133733.190000", "133733.193000", "133733.196000", "133733.198000", "133733.201000", "133733.204000", "133733.207000", "133733.209000", "133733.212000", "133733.215000", "133733.217000", "133733.220000", "133733.223000", "133733.226000", "133733.228000", "133733.231000", "133733.233000", "133733.236000", "133813.185000", "133813.188000", "133813.190000", "133813.193000", "133813.196000", "133813.199000", "133813.201000", "133813.204000", "133813.207000", "133813.209000", "133813.212000", "133813.215000", "133813.218000", "133813.220000", "133813.223000", "133813.226000", "133813.228000", "133813.231000", "133813.234000", "133813.236000", "133853.185000", "133853.188000", "133853.191000", "133853.193000", "133853.196000", "133853.199000", "133853.202000", "133853.204000", "133853.207000", "133853.210000", "133853.212000", "133853.215000", "133853.218000", "133853.220000", "133853.223000", "133853.226000", "133853.228000", "133853.231000", "133853.234000", "133853.237000", "133933.186000", "133933.189000", "133933.192000", "133933.195000", "133933.198000", "133933.200000", "133933.203000", "133933.206000", "133933.209000", "133933.211000", "133933.214000", "133933.217000", "133933.219000", "133933.222000", "133933.225000", "133933.227000", "133933.230000", "133933.233000", "133933.235000", "133933.238000", "134013.185000", "134013.188000", "134013.191000", "134013.193000", "134013.196000", "134013.199000", "134013.201000", "134013.204000", "134013.207000", "134013.209000", "134013.212000", "134013.215000", "134013.218000", "134013.220000", "134013.223000", "134013.226000", "134013.228000", "134013.231000", "134013.234000", "134013.237000", "134053.185000", "134053.188000", "134053.191000", "134053.193000", "134053.196000", "134053.199000", "134053.201000", "134053.204000", "134053.207000", "134053.209000", "134053.212000", "134053.215000", "134053.218000", "134053.220000", "134053.223000", "134053.226000", "134053.228000", "134053.231000", "134053.234000", "134053.237000", "134133.186000", "134133.189000", "134133.192000", "134133.194000", "134133.197000", "134133.200000", "134133.202000", "134133.205000", "134133.208000", "134133.210000", "134133.213000", "134133.216000", "134133.219000", "134133.221000", "134133.224000", "134133.227000", "134133.229000", "134133.232000", "134133.235000", "134133.237000", "134211.529000", "134211.532000", "134211.535000", "134211.538000", "134211.541000", "134211.544000", "134211.546000", "134211.549000", "134211.552000", "134211.555000", "134211.557000", "134211.560000", "134211.571000", "134211.575000", "134211.581000", "134211.583000", "134211.587000", "134211.594000", "134211.598000", "134211.601000"],
      "DataSetTrailingPadding": [
        "\u0000\u0000\u0000\u0000\u0000\u0000\u0000\u0000\u0000\u0000\u0000\u0000\u0000\u0000\u0000\u0000\u0000\u0000\u0000\u0000\u0000\u0000\u0000\u0000\u0000\u0000\u0000\u0000\u0000\u0000\u0000\u0000\u0000\u0000\u0000\u0000\u0000\u0000\u0000\u0000\u0000\u0000\u0000\u0000\u0000\u0000\u0000\u0000\u0000\u0000\u0000\u0000\u0000\u0000\u0000\u0000\u0000\u0000\u0000\u0000\u0000\u0000\u0000\u0000\u0000\u0000\u0000\u0000\u0000\u0000\u0000\u0000\u0000\u0000\u0000\u0000\u0000\u0000\u0000\u0000\u0000\u0000\u0000\u0000\u0000\u0000\u0000\u0000\u0000\u0000\u0000\u0000\u0000\u0000\u0000\u0000\u0000\u0000\u0000\u0000\u0000\u0000\u0000\u0000\u0000\u0000\u0000\u0000\u0000\u0000\u0000\u0000\u0000\u0000\u0000\u0000\u0000\u0000\u0000\u0000\u0000\u0000\u0000\u0000\u0000\u0000\u0000\u0000\u0000\u0000\u0000\u0000\u0000\u0000\u0000\u0000\u0000\u0000\u0000\u0000\u0000\u0000\u0000\u0000\u0000\u0000\u0000\u0000\u0000\u0000\u0000\u0000\u0000\u0000\u0000\u0000\u0000\u0000\u0000\u0000\u0000\u0000\u0000\u0000\u0000\u0000\u0000\u0000\u0000\u0000\u0000\u0000\u0000\u0000\u0000\u0000\u0000\u0000\u0000\u0000\u0000\u0000\u0000\u0000\u0000\u0000\u0000\u0000\u0000\u0000\u0000\u0000\u0000\u0000\u0000\u0000\u0000\u0000\u0000\u0000\u0000\u0000\u0000\u0000\u0000\u0000\u0000\u0000\u0000\u0000\u0000\u0000\u0000\u0000\u0000\u0000\u0000\u0000\u0000\u0000\u0000\u0000\u0000\u0000\u0000\u0000\u0000\u0000\u0000\u0000\u0000\u0000\u0000\u0000\u0000\u0000\u0000\u0000\u0000\u0000\u0000\u0000\u0000\u0000\u0000\u0000\u0000\u0000\u0000\u0000\u0000\u0000\u0000\u0000\u0000\u0000\u0000\u0000\u0000\u0000\u0000\u0000\u0000\u0000\u0000\u0000\u0000\u0000\u0000\u0000\u0000\u0000\u0000\u0000\u0000\u0000\u0000\u0000\u0000\u0000\u0000\u0000\u0000\u0000\u0000\u0000\u0000\u0000\u0000\u0000\u0000\u0000\u0000\u0000\u0000\u0000\u0000\u0000\u0000\u0000\u0000\u0000\u0000\u0000",
        "\u0000\u0000\u0000\u0000\u0000\u0000\u0000\u0000\u0000\u0000\u0000\u0000\u0000\u0000\u0000\u0000\u0000\u0000\u0000\u0000\u0000\u0000\u0000\u0000\u0000\u0000\u0000\u0000\u0000\u0000\u0000\u0000\u0000\u0000\u0000\u0000\u0000\u0000\u0000\u0000\u0000\u0000\u0000\u0000\u0000\u0000\u0000\u0000\u0000\u0000\u0000\u0000\u0000\u0000\u0000\u0000\u0000\u0000\u0000\u0000\u0000\u0000\u0000\u0000\u0000\u0000\u0000\u0000\u0000\u0000\u0000\u0000\u0000\u0000\u0000\u0000\u0000\u0000\u0000\u0000\u0000\u0000\u0000\u0000\u0000\u0000\u0000\u0000\u0000\u0000\u0000\u0000\u0000\u0000\u0000\u0000\u0000\u0000\u0000\u0000\u0000\u0000\u0000\u0000\u0000\u0000\u0000\u0000\u0000\u0000\u0000\u0000\u0000\u0000\u0000\u0000\u0000\u0000\u0000\u0000\u0000\u0000\u0000\u0000\u0000\u0000\u0000\u0000\u0000\u0000\u0000\u0000\u0000\u0000\u0000\u0000\u0000\u0000\u0000\u0000\u0000\u0000\u0000\u0000\u0000\u0000\u0000\u0000\u0000\u0000\u0000\u0000\u0000\u0000\u0000\u0000\u0000\u0000\u0000\u0000\u0000\u0000\u0000\u0000\u0000\u0000\u0000\u0000\u0000\u0000\u0000\u0000\u0000\u0000\u0000\u0000\u0000\u0000\u0000\u0000\u0000\u0000\u0000\u0000\u0000\u0000\u0000\u0000\u0000\u0000\u0000\u0000\u0000\u0000\u0000\u0000\u0000\u0000\u0000\u0000\u0000\u0000\u0000\u0000\u0000\u0000\u0000\u0000\u0000\u0000\u0000\u0000\u0000\u0000\u0000\u0000\u0000\u0000\u0000\u0000\u0000\u0000\u0000\u0000\u0000\u0000\u0000\u0000\u0000\u0000\u0000\u0000\u0000\u0000\u0000\u0000\u0000\u0000\u0000\u0000\u0000\u0000\u0000\u0000\u0000\u0000\u0000\u0000\u0000\u0000\u0000\u0000\u0000\u0000\u0000\u0000\u0000\u0000\u0000\u0000\u0000\u0000\u0000\u0000\u0000\u0000\u0000\u0000\u0000\u0000\u0000\u0000\u0000\u0000\u0000\u0000\u0000\u0000\u0000\u0000\u0000\u0000\u0000\u0000\u0000\u0000\u0000\u0000\u0000\u0000\u0000\u0000\u0000\u0000\u0000\u0000\u0000\u0000\u0000\u0000\u0000\u0000\u0000\u0000\u0000\u0000",
        "\u0000\u0000\u0000\u0000\u0000\u0000\u0000\u0000\u0000\u0000\u0000\u0000\u0000\u0000\u0000\u0000\u0000\u0000\u0000\u0000\u0000\u0000\u0000\u0000\u0000\u0000\u0000\u0000\u0000\u0000\u0000\u0000\u0000\u0000\u0000\u0000\u0000\u0000\u0000\u0000\u0000\u0000\u0000\u0000\u0000\u0000\u0000\u0000\u0000\u0000\u0000\u0000\u0000\u0000\u0000\u0000\u0000\u0000\u0000\u0000\u0000\u0000\u0000\u0000\u0000\u0000\u0000\u0000\u0000\u0000\u0000\u0000\u0000\u0000\u0000\u0000\u0000\u0000\u0000\u0000\u0000\u0000\u0000\u0000\u0000\u0000\u0000\u0000\u0000\u0000\u0000\u0000\u0000\u0000\u0000\u0000\u0000\u0000\u0000\u0000\u0000\u0000\u0000\u0000\u0000\u0000\u0000\u0000\u0000\u0000\u0000\u0000\u0000\u0000\u0000\u0000\u0000\u0000\u0000\u0000\u0000\u0000\u0000\u0000\u0000\u0000\u0000\u0000\u0000\u0000\u0000\u0000\u0000\u0000\u0000\u0000\u0000\u0000\u0000\u0000\u0000\u0000\u0000\u0000\u0000\u0000\u0000\u0000\u0000\u0000\u0000\u0000\u0000\u0000\u0000\u0000\u0000\u0000\u0000\u0000\u0000\u0000\u0000\u0000\u0000\u0000\u0000\u0000\u0000\u0000\u0000\u0000\u0000\u0000\u0000\u0000\u0000\u0000\u0000\u0000\u0000\u0000\u0000\u0000\u0000\u0000\u0000\u0000\u0000\u0000\u0000\u0000\u0000\u0000\u0000\u0000\u0000\u0000\u0000\u0000\u0000\u0000\u0000\u0000\u0000\u0000\u0000\u0000\u0000\u0000\u0000\u0000\u0000\u0000\u0000\u0000\u0000\u0000\u0000\u0000\u0000\u0000\u0000\u0000\u0000\u0000\u0000\u0000\u0000\u0000\u0000\u0000\u0000\u0000\u0000\u0000\u0000\u0000\u0000\u0000\u0000\u0000\u0000\u0000\u0000\u0000\u0000\u0000\u0000\u0000\u0000\u0000\u0000\u0000\u0000\u0000\u0000\u0000\u0000\u0000\u0000\u0000\u0000\u0000\u0000\u0000\u0000\u0000\u0000\u0000\u0000\u0000\u0000\u0000\u0000\u0000\u0000\u0000\u0000\u0000\u0000\u0000\u0000\u0000\u0000\u0000\u0000\u0000\u0000\u0000\u0000\u0000\u0000\u0000\u0000\u0000\u0000\u0000\u0000\u0000\u0000\u0000\u0000\u0000\u0000\u0000",
        "\u0000\u0000\u0000\u0000\u0000\u0000\u0000\u0000\u0000\u0000\u0000\u0000\u0000\u0000\u0000\u0000\u0000\u0000\u0000\u0000\u0000\u0000\u0000\u0000\u0000\u0000\u0000\u0000\u0000\u0000\u0000\u0000\u0000\u0000\u0000\u0000\u0000\u0000\u0000\u0000\u0000\u0000\u0000\u0000\u0000\u0000\u0000\u0000\u0000\u0000\u0000\u0000\u0000\u0000\u0000\u0000\u0000\u0000\u0000\u0000\u0000\u0000\u0000\u0000\u0000\u0000\u0000\u0000\u0000\u0000\u0000\u0000\u0000\u0000\u0000\u0000\u0000\u0000\u0000\u0000\u0000\u0000\u0000\u0000\u0000\u0000\u0000\u0000\u0000\u0000\u0000\u0000\u0000\u0000\u0000\u0000\u0000\u0000\u0000\u0000\u0000\u0000\u0000\u0000\u0000\u0000\u0000\u0000\u0000\u0000\u0000\u0000\u0000\u0000\u0000\u0000\u0000\u0000\u0000\u0000\u0000\u0000\u0000\u0000\u0000\u0000\u0000\u0000\u0000\u0000\u0000\u0000\u0000\u0000\u0000\u0000\u0000\u0000\u0000\u0000\u0000\u0000\u0000\u0000\u0000\u0000\u0000\u0000\u0000\u0000\u0000\u0000\u0000\u0000\u0000\u0000\u0000\u0000\u0000\u0000\u0000\u0000\u0000\u0000\u0000\u0000\u0000\u0000\u0000\u0000\u0000\u0000\u0000\u0000\u0000\u0000\u0000\u0000\u0000\u0000\u0000\u0000\u0000\u0000\u0000\u0000\u0000\u0000\u0000\u0000\u0000\u0000\u0000\u0000\u0000\u0000\u0000\u0000\u0000\u0000\u0000\u0000\u0000\u0000\u0000\u0000\u0000\u0000\u0000\u0000\u0000\u0000\u0000\u0000\u0000\u0000\u0000\u0000\u0000\u0000\u0000\u0000\u0000\u0000\u0000\u0000\u0000\u0000\u0000\u0000\u0000\u0000\u0000\u0000\u0000\u0000\u0000\u0000\u0000\u0000\u0000\u0000\u0000\u0000\u0000\u0000\u0000\u0000\u0000\u0000\u0000\u0000\u0000\u0000\u0000\u0000\u0000\u0000\u0000\u0000\u0000\u0000\u0000\u0000\u0000\u0000\u0000\u0000\u0000\u0000\u0000\u0000\u0000\u0000\u0000\u0000\u0000\u0000\u0000\u0000\u0000\u0000\u0000\u0000\u0000\u0000\u0000\u0000\u0000\u0000\u0000\u0000\u0000\u0000\u0000\u0000\u0000\u0000\u0000\u0000\u0000\u0000\u0000\u0000\u0000\u0000",
