{
  "AcquisitionMatrixPE": 70,
  "AcquisitionNumber": 1,
  "AcquisitionTime": "14:00:6.315000",
  "BandwidthPerPixelPhaseEncode": 51.948,
  "BaseResolution": 70,
  "BodyPartExamined": "HEAD",
  "CoilCombinationMethod": "Sum of Squares",
  "ConsistencyInfo": "N4_VE11C_LATEST_20160120",
  "ConversionSoftware": "dcm2niix",
  "ConversionSoftwareVersion": "v1.0.20220720",
  "DerivedVendorReportedEchoSpacing": 0.000550001,
  "DeviceSerialNumber": "66061",
  "DwellTime": 3.3e-06,
  "EchoTime": 0.022,
  "EchoTrainLength": 35,
  "EffectiveEchoSpacing": 0.000275,
  "FlipAngle": 90,
  "HeudiconvVersion": "1.1.1",
  "ImageOrientationPatientDICOM": [0.997646, 0.00864972, 0.0680292, -0.00121887, 0.994093, -0.108521],
  "ImageOrientationText": "Tra>Cor(-6.2)>Sag(3.9)",
  "ImageType": [
    "ORIGINAL",
    "PRIMARY",
    "M",
    "ND",
    "NORM",
    "MOSAIC"
],
  "ImagingFrequency": 123.255,
  "InPlanePhaseEncodingDirectionDICOM": "COL",
  "InstitutionAddress": "Street StreetNo,City/1c4204/,District,KR,ZIP",
  "InstitutionName": "SKKU",
  "InstitutionalDepartmentName": "Department",
  "MRAcquisitionType": "2D",
  "MagneticFieldStrength": 3,
  "Manufacturer": "Siemens",
  "ManufacturersModelName": "Prisma",
  "MatrixCoilMode": "GRAPPA",
  "Modality": "MR",
  "NonlinearGradientCorrection": false,
  "ParallelReductionFactorInPlane": 2,
  "PartialFourier": 1,
  "PatientPosition": "HFS",
  "PercentPhaseFOV": 100,
  "PercentSampling": 100,
  "PhaseEncodingDirection": "j-",
  "PhaseEncodingSteps": 70,
  "PhaseResolution": 1,
  "PixelBandwidth": 2165,
  "ProcedureStepDescription": "Head^PI:Others",
  "ProtocolName": "BOLD_ep2d_3x3x3_response2",
  "PulseSequenceDetails": "%SiemensSeq%\\ep2d_pace",
  "ReceiveCoilActiveElements": "HC1-7",
  "ReceiveCoilName": "HeadNeck_64",
  "ReconMatrixPE": 70,
  "RefLinesPE": 24,
  "RepetitionTime": 2,
  "SAR": 0.129657,
  "ScanOptions": "FS",
  "ScanningSequence": "EP",
  "SequenceName": "*epfid2d1_70",
  "SequenceVariant": "SK",
  "SeriesDescription": "BOLD_ep2d_3x3x3_response2",
  "SeriesNumber": 9,
  "ShimSetting": [5045, 3672, 4275, 273, -105, 48, -72, 68],
  "SliceThickness": 3,
  "SliceTiming": [0.99, 0, 1.0375, 0.0475, 1.085, 0.095, 1.13, 0.1425, 1.1775, 0.1875, 1.225, 0.235, 1.2725, 0.2825, 1.32, 0.33, 1.3675, 0.3775, 1.415, 0.425, 1.46, 0.47, 1.5075, 0.5175, 1.555, 0.565, 1.6025, 0.6125, 1.65, 0.66, 1.6975, 0.7075, 1.745, 0.755, 1.79, 0.8, 1.8375, 0.8475, 1.885, 0.895, 1.9325, 0.9425],
  "SoftwareVersions": "syngo MR E11",
  "SpacingBetweenSlices": 3,
  "StationName": "AWP66061",
  "TaskName": "response",
  "TotalReadoutTime": 0.018975,
  "TxRefAmp": 222.798,
  "dcmmeta_affine": [
    [-2.9929375648498535, -0.0036565980408340693, 0.20569831132888794, 105.25534057617188],
    [-0.025949159637093544, 2.9822800159454346, -0.32454913854599, -92.6336669921875],
    [0.2040877491235733, 0.32556432485580444, 2.9752910137176514, -63.47715377807617],
    [0.0, 0.0, 0.0, 1.0]
],
  "dcmmeta_reorient_transform": [
    [0.0, -1.0, 0.0, 69.0],
    [1.0, 0.0, 0.0, 0.0],
    [0.0, 0.0, -1.0, 41.0],
    [0.0, 0.0, 0.0, 1.0]
],
  "dcmmeta_shape": [70, 70, 42, 341],
  "dcmmeta_slice_dim": 2,
  "dcmmeta_version": 0.6,
  "global": {
    "const": {
      "AcquisitionMatrix": [70, 0, 0, 70],
      "AngioFlag": "N",
      "BitsAllocated": 16,
      "BitsStored": 12,
      "BodyPartExamined": "HEAD",
      "Columns": 490,
      "EchoNumbers": 1,
      "EchoTime": 22.0,
      "EchoTrainLength": 35,
      "FlipAngle": 90.0,
      "HighBit": 11,
      "ImageOrientationPatient": [0.99764583083205, 0.00864971976382, 0.06802924791179, -0.001218866052, 0.99409336086598, -0.1085214460267],
      "ImagePositionPatient": [-741.18565535605, -731.56528707327, 106.4837962541],
      "ImageType": [
        "ORIGINAL",
        "PRIMARY",
        "M",
        "ND",
        "NORM",
        "MOSAIC"
],
      "ImagedNucleus": "1H",
      "ImagingFrequency": 123.254641,
      "InPlanePhaseEncodingDirection": "COL",
      "MRAcquisitionType": "2D",
      "MagneticFieldStrength": 3.0,
      "Manufacturer": "SIEMENS",
      "ManufacturerModelName": "Prisma",
      "Modality": "MR",
      "NumberOfAverages": 1.0,
      "NumberOfPhaseEncodingSteps": 70,
      "PercentPhaseFieldOfView": 100.0,
      "PercentSampling": 100.0,
      "PerformedProcedureStepStartTime": "130548.747000",
      "PhotometricInterpretation": "MONOCHROME2",
      "PixelBandwidth": 2165.0,
      "PixelRepresentation": 0,
      "PixelSpacing": [3.0, 3.0],
      "ProtocolName": "BOLD_ep2d_3x3x3_response2",
      "RepetitionTime": 2000.0,
      "Rows": 490,
      "SAR": 0.12965665688983,
      "SamplesPerPixel": 1,
      "ScanOptions": "FS",
      "ScanningSequence": "EP",
      "SequenceName": "*epfid2d1_70",
      "SequenceVariant": "SK",
      "SeriesDescription": "BOLD_ep2d_3x3x3_response2",
      "SeriesNumber": 9,
      "SeriesTime": "140049.769000",
      "SliceLocation": 77.284006154154,
      "SliceThickness": 3.0,
      "SmallestImagePixelValue": 0,
      "SoftwareVersions": "syngo MR E11",
      "SpacingBetweenSlices": 2.9999999839772,
      "SpecificCharacterSet": "ISO_IR 100",
      "StudyID": "1",
      "StudyTime": "130548.665000",
      "TransmitCoilName": "Body",
      "VariableFlipAngleFlag": "N",
      "WindowCenterWidthExplanation": "Algo1",
      "dBdt": 0.0},
    "slices": {}
  },
  "time": {
    "samples": {
      "AcquisitionNumber": [1, 2, 3, 4, 5, 6, 7, 8, 9, 10, 11, 12, 13, 14, 15, 16, 17, 18, 19, 20, 21, 22, 23, 24, 25, 26, 27, 28, 29, 30, 31, 32, 33, 34, 35, 36, 37, 38, 39, 40, 41, 42, 43, 44, 45, 46, 47, 48, 49, 50, 51, 52, 53, 54, 55, 56, 57, 58, 59, 60, 61, 62, 63, 64, 65, 66, 67, 68, 69, 70, 71, 72, 73, 74, 75, 76, 77, 78, 79, 80, 81, 82, 83, 84, 85, 86, 87, 88, 89, 90, 91, 92, 93, 94, 95, 96, 97, 98, 99, 100, 101, 102, 103, 104, 105, 106, 107, 108, 109, 110, 111, 112, 113, 114, 115, 116, 117, 118, 119, 120, 121, 122, 123, 124, 125, 126, 127, 128, 129, 130, 131, 132, 133, 134, 135, 136, 137, 138, 139, 140, 141, 142, 143, 144, 145, 146, 147, 148, 149, 150, 151, 152, 153, 154, 155, 156, 157, 158, 159, 160, 161, 162, 163, 164, 165, 166, 167, 168, 169, 170, 171, 172, 173, 174, 175, 176, 177, 178, 179, 180, 181, 182, 183, 184, 185, 186, 187, 188, 189, 190, 191, 192, 193, 194, 195, 196, 197, 198, 199, 200, 201, 202, 203, 204, 205, 206, 207, 208, 209, 210, 211, 212, 213, 214, 215, 216, 217, 218, 219, 220, 221, 222, 223, 224, 225, 226, 227, 228, 229, 230, 231, 232, 233, 234, 235, 236, 237, 238, 239, 240, 241, 242, 243, 244, 245, 246, 247, 248, 249, 250, 251, 252, 253, 254, 255, 256, 257, 258, 259, 260, 261, 262, 263, 264, 265, 266, 267, 268, 269, 270, 271, 272, 273, 274, 275, 276, 277, 278, 279, 280, 281, 282, 283, 284, 285, 286, 287, 288, 289, 290, 291, 292, 293, 294, 295, 296, 297, 298, 299, 300, 301, 302, 303, 304, 305, 306, 307, 308, 309, 310, 311, 312, 313, 314, 315, 316, 317, 318, 319, 320, 321, 322, 323, 324, 325, 326, 327, 328, 329, 330, 331, 332, 333, 334, 335, 336, 337, 338, 339, 340, 341],
      "AcquisitionTime": ["140006.315000", "140008.315000", "140010.315000", "140012.315000", "140014.315000", "140016.315000", "140018.315000", "140020.315000", "140022.315000", "140024.315000", "140026.315000", "140028.315000", "140030.315000", "140032.315000", "140034.315000", "140036.315000", "140038.315000", "140040.315000", "140042.315000", "140044.315000", "140046.315000", "140048.315000", "140050.315000", "140052.315000", "140054.315000", "140056.315000", "140058.315000", "140100.315000", "140102.315000", "140104.315000", "140106.315000", "140108.315000", "140110.315000", "140112.315000", "140114.315000", "140116.315000", "140118.315000", "140120.315000", "140122.315000", "140124.315000", "140126.315000", "140128.315000", "140130.315000", "140132.315000", "140134.315000", "140136.315000", "140138.315000", "140140.315000", "140142.315000", "140144.315000", "140146.315000", "140148.315000", "140150.315000", "140152.315000", "140154.315000", "140156.315000", "140158.315000", "140200.315000", "140202.315000", "140204.315000", "140206.315000", "140208.315000", "140210.315000", "140212.315000", "140214.315000", "140216.315000", "140218.315000", "140220.315000", "140222.315000", "140224.315000", "140226.315000", "140228.315000", "140230.315000", "140232.315000", "140234.315000", "140236.315000", "140238.315000", "140240.315000", "140242.315000", "140244.315000", "140246.315000", "140248.315000", "140250.315000", "140252.315000", "140254.315000", "140256.315000", "140258.315000", "140300.315000", "140302.315000", "140304.315000", "140306.315000", "140308.315000", "140310.315000", "140312.315000", "140314.315000", "140316.315000", "140318.315000", "140320.315000", "140322.315000", "140324.315000", "140326.315000", "140328.315000", "140330.315000", "140332.315000", "140334.315000", "140336.315000", "140338.315000", "140340.315000", "140342.315000", "140344.315000", "140346.315000", "140348.315000", "140350.315000", "140352.315000", "140354.315000", "140356.315000", "140358.315000", "140400.315000", "140402.315000", "140404.315000", "140406.315000", "140408.315000", "140410.315000", "140412.315000", "140414.315000", "140416.315000", "140418.315000", "140420.315000", "140422.315000", "140424.315000", "140426.315000", "140428.315000", "140430.315000", "140432.315000", "140434.315000", "140436.315000", "140438.315000", "140440.315000", "140442.315000", "140444.315000", "140446.315000", "140448.315000", "140450.315000", "140452.315000", "140454.315000", "140456.315000", "140458.315000", "140500.315000", "140502.315000", "140504.315000", "140506.315000", "140508.315000", "140510.315000", "140512.315000", "140514.315000", "140516.315000", "140518.315000", "140520.315000", "140522.315000", "140524.315000", "140526.315000", "140528.315000", "140530.315000", "140532.315000", "140534.315000", "140536.315000", "140538.315000", "140540.315000", "140542.315000", "140544.315000", "140546.315000", "140548.315000", "140550.315000", "140552.315000", "140554.315000", "140556.315000", "140558.315000", "140600.315000", "140602.315000", "140604.315000", "140606.315000", "140608.315000", "140610.315000", "140612.315000", "140614.315000", "140616.315000", "140618.315000", "140620.315000", "140622.315000", "140624.315000", "140626.315000", "140628.315000", "140630.315000", "140632.315000", "140634.315000", "140636.315000", "140638.315000", "140640.315000", "140642.315000", "140644.315000", "140646.315000", "140648.315000", "140650.315000", "140652.315000", "140654.315000", "140656.315000", "140658.315000", "140700.315000", "140702.315000", "140704.315000", "140706.315000", "140708.315000", "140710.315000", "140712.315000", "140714.315000", "140716.315000", "140718.315000", "140720.315000", "140722.315000", "140724.315000", "140726.315000", "140728.315000", "140730.315000", "140732.315000", "140734.315000", "140736.315000", "140738.315000", "140740.315000", "140742.315000", "140744.315000", "140746.315000", "140748.315000", "140750.315000", "140752.315000", "140754.315000", "140756.315000", "140758.315000", "140800.315000", "140802.315000", "140804.315000", "140806.315000", "140808.315000", "140810.315000", "140812.315000", "140814.315000", "140816.315000", "140818.315000", "140820.315000", "140822.315000", "140824.315000", "140826.315000", "140828.315000", "140830.315000", "140832.315000", "140834.315000", "140836.315000", "140838.315000", "140840.315000", "140842.315000", "140844.315000", "140846.315000", "140848.315000", "140850.315000", "140852.315000", "140854.315000", "140856.315000", "140858.315000", "140900.315000", "140902.315000", "140904.315000", "140906.315000", "140908.315000", "140910.315000", "140912.315000", "140914.315000", "140916.315000", "140918.315000", "140920.315000", "140922.315000", "140924.315000", "140926.315000", "140928.315000", "140930.315000", "140932.315000", "140934.315000", "140936.315000", "140938.315000", "140940.315000", "140942.315000", "140944.315000", "140946.315000", "140948.315000", "140950.315000", "140952.315000", "140954.315000", "140956.315000", "140958.315000", "141000.315000", "141002.315000", "141004.315000", "141006.315000", "141008.315000", "141010.315000", "141012.315000", "141014.315000", "141016.315000", "141018.315000", "141020.315000", "141022.315000", "141024.315000", "141026.315000", "141028.315000", "141030.315000", "141032.315000", "141034.315000", "141036.315000", "141038.315000", "141040.315000", "141042.315000", "141044.315000", "141046.315000", "141048.315000", "141050.315000", "141052.315000", "141054.315000", "141056.315000", "141058.315000", "141100.315000", "141102.315000", "141104.315000", "141106.315000", "141108.315000", "141110.315000", "141112.315000", "141114.315000", "141116.315000", "141118.315000", "141120.315000", "141122.315000", "141124.315000", "141126.315000"],
      "ContentTime": ["140049.772000", "140049.776000", "140049.778000", "140049.788000", "140049.790000", "140049.793000", "140049.802000", "140049.805000", "140049.808000", "140049.810000", "140049.813000", "140049.816000", "140049.818000", "140049.821000", "140049.823000", "140049.826000", "140049.829000", "140049.850000", "140049.853000", "140049.855000", "140049.858000", "140129.768000", "140129.770000", "140129.773000", "140129.776000", "140129.778000", "140129.781000", "140129.784000", "140129.786000", "140129.789000", "140129.792000", "140129.794000", "140129.797000", "140129.799000", "140129.802000", "140129.805000", "140129.807000", "140129.810000", "140129.813000", "140129.815000", "140129.818000", "140209.767000", "140209.770000", "140209.773000", "140209.776000", "140209.778000", "140209.781000", "140209.784000", "140209.786000", "140209.789000", "140209.792000", "140209.794000", "140209.797000", "140209.799000", "140209.802000", "140209.805000", "140209.807000", "140209.810000", "140209.813000", "140209.815000", "140209.818000", "140249.769000", "140249.771000", "140249.774000", "140249.777000", "140249.779000", "140249.782000", "140249.785000", "140249.787000", "140249.790000", "140249.793000", "140249.795000", "140249.798000", "140249.800000", "140249.803000", "140249.806000", "140249.808000", "140249.811000", "140249.814000", "140249.816000", "140249.819000", "140329.768000", "140329.770000", "140329.773000", "140329.776000", "140329.779000", "140329.781000", "140329.784000", "140329.786000", "140329.789000", "140329.792000", "140329.794000", "140329.797000", "140329.800000", "140329.802000", "140329.805000", "140329.815000", "140329.818000", "140329.821000", "140329.823000", "140329.826000", "140409.768000", "140409.771000", "140409.773000", "140409.776000", "140409.779000", "140409.781000", "140409.784000", "140409.786000", "140409.789000", "140409.792000", "140409.794000", "140409.797000", "140409.800000", "140409.802000", "140409.805000", "140409.808000", "140409.810000", "140409.813000", "140409.816000", "140409.826000", "140449.769000", "140449.771000", "140449.774000", "140449.777000", "140449.779000", "140449.782000", "140449.784000", "140449.787000", "140449.790000", "140449.792000", "140449.795000", "140449.798000", "140449.800000", "140449.803000", "140449.806000", "140449.809000", "140449.811000", "140449.814000", "140449.816000", "140449.819000", "140529.768000", "140529.770000", "140529.773000", "140529.776000", "140529.778000", "140529.781000", "140529.784000", "140529.786000", "140529.789000", "140529.792000", "140529.794000", "140529.797000", "140529.800000", "140529.802000", "140529.805000", "140529.807000", "140529.810000", "140529.813000", "140529.815000", "140529.818000", "140609.768000", "140609.770000", "140609.773000", "140609.776000", "140609.778000", "140609.781000", "140609.784000", "140609.786000", "140609.789000", "140609.792000", "140609.794000", "140609.797000", "140609.800000", "140609.802000", "140609.805000", "140609.808000", "140609.810000", "140609.813000", "140609.816000", "140609.818000", "140649.768000", "140649.770000", "140649.773000", "140649.776000", "140649.778000", "140649.781000", "140649.784000", "140649.786000", "140649.789000", "140649.792000", "140649.794000", "140649.797000", "140649.800000", "140649.802000", "140649.805000", "140649.808000", "140649.810000", "140649.813000", "140649.816000", "140649.818000", "140729.769000", "140729.771000", "140729.774000", "140729.777000", "140729.780000", "140729.782000", "140729.785000", "140729.787000", "140729.790000", "140729.793000", "140729.796000", "140729.798000", "140729.801000", "140729.804000", "140729.806000", "140729.809000", "140729.811000", "140729.814000", "140729.817000", "140729.819000", "140809.768000", "140809.776000", "140809.779000", "140809.782000", "140809.784000", "140809.787000", "140809.790000", "140809.792000", "140809.795000", "140809.798000", "140809.800000", "140809.803000", "140809.806000", "140809.809000", "140809.811000", "140809.814000", "140809.817000", "140809.820000", "140809.822000", "140809.825000", "140849.768000", "140849.771000", "140849.773000", "140849.776000", "140849.778000", "140849.781000", "140849.784000", "140849.786000", "140849.789000", "140849.792000", "140849.794000", "140849.797000", "140849.800000", "140849.802000", "140849.821000", "140849.824000", "140849.827000", "140849.829000", "140849.832000", "140849.834000", "140929.769000", "140929.771000", "140929.774000", "140929.777000", "140929.779000", "140929.782000", "140929.785000", "140929.787000", "140929.794000", "140929.796000", "140929.799000", "140929.802000", "140929.804000", "140929.807000", "140929.810000", "140929.812000", "140929.815000", "140929.817000", "140929.820000", "140929.823000", "141009.768000", "141009.771000", "141009.773000", "141009.776000", "141009.778000", "141009.781000", "141009.784000", "141009.786000", "141009.789000", "141009.792000", "141009.794000", "141009.797000", "141009.800000", "141009.802000", "141009.805000", "141009.808000", "141009.810000", "141009.813000", "141009.815000", "141009.818000", "141049.768000", "141049.770000", "141049.773000", "141049.776000", "141049.779000", "141049.781000", "141049.784000", "141049.786000", "141049.789000", "141049.792000", "141049.794000", "141049.797000", "141049.799000", "141049.802000", "141049.805000", "141049.807000", "141049.810000", "141049.813000", "141049.815000", "141049.818000", "141128.183000", "141128.186000", "141128.189000", "141128.192000", "141128.195000", "141128.197000", "141128.200000", "141128.203000", "141128.205000", "141128.208000", "141128.211000", "141128.213000", "141128.224000", "141128.227000", "141128.230000", "141128.233000", "141128.236000", "141128.240000", "141128.243000", "141128.246000"],
      "DataSetTrailingPadding": [
        "\u0000\u0000\u0000\u0000\u0000\u0000\u0000\u0000\u0000\u0000\u0000\u0000\u0000\u0000\u0000\u0000\u0000\u0000\u0000\u0000\u0000\u0000\u0000\u0000\u0000\u0000\u0000\u0000\u0000\u0000\u0000\u0000\u0000\u0000\u0000\u0000\u0000\u0000\u0000\u0000\u0000\u0000",
        "\u0000\u0000\u0000\u0000\u0000\u0000\u0000\u0000\u0000\u0000\u0000\u0000\u0000\u0000\u0000\u0000\u0000\u0000\u0000\u0000\u0000\u0000\u0000\u0000\u0000\u0000\u0000\u0000\u0000\u0000\u0000\u0000\u0000\u0000\u0000\u0000\u0000\u0000\u0000\u0000",
        "\u0000\u0000\u0000\u0000\u0000\u0000\u0000\u0000\u0000\u0000\u0000\u0000\u0000\u0000\u0000\u0000\u0000\u0000\u0000\u0000\u0000\u0000\u0000\u0000\u0000\u0000\u0000\u0000\u0000\u0000\u0000\u0000\u0000\u0000\u0000\u0000\u0000\u0000\u0000\u0000",
        "\u0000\u0000\u0000\u0000\u0000\u0000\u0000\u0000\u0000\u0000\u0000\u0000\u0000\u0000\u0000\u0000\u0000\u0000\u0000\u0000\u0000\u0000\u0000\u0000\u0000\u0000\u0000\u0000\u0000\u0000\u0000\u0000\u0000\u0000\u0000\u0000\u0000\u0000\u0000\u0000",
        "\u0000\u0000\u0000\u0000\u0000\u0000\u0000\u0000\u0000\u0000\u0000\u0000\u0000\u0000\u0000\u0000\u0000\u0000\u0000\u0000\u0000\u0000\u0000\u0000\u0000\u0000\u0000\u0000\u0000\u0000\u0000\u0000\u0000\u0000\u0000\u0000\u0000\u0000",
        "\u0000\u0000\u0000\u0000\u0000\u0000\u0000\u0000\u0000\u0000\u0000\u0000\u0000\u0000\u0000\u0000\u0000\u0000\u0000\u0000\u0000\u0000\u0000\u0000\u0000\u0000\u0000\u0000\u0000\u0000\u0000\u0000\u0000\u0000\u0000\u0000\u0000\u0000",
        "\u0000\u0000\u0000\u0000\u0000\u0000\u0000\u0000\u0000\u0000\u0000\u0000\u0000\u0000\u0000\u0000\u0000\u0000\u0000\u0000\u0000\u0000\u0000\u0000\u0000\u0000\u0000\u0000\u0000\u0000\u0000\u0000\u0000\u0000\u0000\u0000\u0000\u0000",
        "\u0000\u0000\u0000\u0000\u0000\u0000\u0000\u0000\u0000\u0000\u0000\u0000\u0000\u0000\u0000\u0000\u0000\u0000\u0000\u0000\u0000\u0000\u0000\u0000\u0000\u0000\u0000\u0000\u0000\u0000\u0000\u0000\u0000\u0000\u0000\u0000\u0000\u0000",
        "\u0000\u0000\u0000\u0000\u0000\u0000\u0000\u0000\u0000\u0000\u0000\u0000\u0000\u0000\u0000\u0000\u0000\u0000\u0000\u0000\u0000\u0000\u0000\u0000\u0000\u0000\u0000\u0000\u0000\u0000\u0000\u0000\u0000\u0000\u0000\u0000\u0000\u0000",
        "\u0000\u0000\u0000\u0000\u0000\u0000\u0000\u0000\u0000\u0000\u0000\u0000\u0000\u0000\u0000\u0000\u0000\u0000\u0000\u0000\u0000\u0000\u0000\u0000\u0000\u0000\u0000\u0000\u0000\u0000\u0000\u0000\u0000\u0000\u0000\u0000\u0000\u0000",
        "\u0000\u0000\u0000\u0000\u0000\u0000\u0000\u0000\u0000\u0000\u0000\u0000\u0000\u0000\u0000\u0000\u0000\u0000\u0000\u0000\u0000\u0000\u0000\u0000\u0000\u0000\u0000\u0000\u0000\u0000\u0000\u0000\u0000\u0000\u0000\u0000\u0000\u0000",
        "\u0000\u0000\u0000\u0000\u0000\u0000\u0000\u0000\u0000\u0000\u0000\u0000\u0000\u0000\u0000\u0000\u0000\u0000\u0000\u0000\u0000\u0000\u0000\u0000\u0000\u0000\u0000\u0000\u0000\u0000\u0000\u0000\u0000\u0000\u0000\u0000\u0000\u0000",
        "\u0000\u0000\u0000\u0000\u0000\u0000\u0000\u0000\u0000\u0000\u0000\u0000\u0000\u0000\u0000\u0000\u0000\u0000\u0000\u0000\u0000\u0000\u0000\u0000\u0000\u0000\u0000\u0000\u0000\u0000\u0000\u0000\u0000\u0000\u0000\u0000\u0000\u0000",
        "\u0000\u0000\u0000\u0000\u0000\u0000\u0000\u0000\u0000\u0000\u0000\u0000\u0000\u0000\u0000\u0000\u0000\u0000\u0000\u0000\u0000\u0000\u0000\u0000\u0000\u0000\u0000\u0000\u0000\u0000\u0000\u0000\u0000\u0000\u0000\u0000\u0000\u0000",
        "\u0000\u0000\u0000\u0000\u0000\u0000\u0000\u0000\u0000\u0000\u0000\u0000\u0000\u0000\u0000\u0000\u0000\u0000\u0000\u0000\u0000\u0000\u0000\u0000\u0000\u0000\u0000\u0000\u0000\u0000\u0000\u0000\u0000\u0000\u0000\u0000\u0000\u0000",
        "\u0000\u0000\u0000\u0000\u0000\u0000\u0000\u0000\u0000\u0000\u0000\u0000\u0000\u0000\u0000\u0000\u0000\u0000\u0000\u0000\u0000\u0000\u0000\u0000\u0000\u0000\u0000\u0000\u0000\u0000\u0000\u0000\u0000\u0000\u0000\u0000\u0000\u0000",
        "\u0000\u0000\u0000\u0000\u0000\u0000\u0000\u0000\u0000\u0000\u0000\u0000\u0000\u0000\u0000\u0000\u0000\u0000\u0000\u0000\u0000\u0000\u0000\u0000\u0000\u0000\u0000\u0000\u0000\u0000\u0000\u0000\u0000\u0000\u0000\u0000\u0000\u0000",
        "\u0000\u0000\u0000\u0000\u0000\u0000\u0000\u0000\u0000\u0000\u0000\u0000\u0000\u0000\u0000\u0000\u0000\u0000\u0000\u0000\u0000\u0000\u0000\u0000\u0000\u0000\u0000\u0000\u0000\u0000\u0000\u0000\u0000\u0000\u0000\u0000\u0000\u0000",
        "\u0000\u0000\u0000\u0000\u0000\u0000\u0000\u0000\u0000\u0000\u0000\u0000\u0000\u0000\u0000\u0000\u0000\u0000\u0000\u0000\u0000\u0000\u0000\u0000\u0000\u0000\u0000\u0000\u0000\u0000\u0000\u0000\u0000\u0000\u0000\u0000\u0000\u0000",
        "\u0000\u0000\u0000\u0000\u0000\u0000\u0000\u0000\u0000\u0000\u0000\u0000\u0000\u0000\u0000\u0000\u0000\u0000\u0000\u0000\u0000\u0000\u0000\u0000\u0000\u0000\u0000\u0000\u0000\u0000\u0000\u0000\u0000\u0000\u0000\u0000\u0000\u0000",
        "\u0000\u0000\u0000\u0000\u0000\u0000\u0000\u0000\u0000\u0000\u0000\u0000\u0000\u0000\u0000\u0000\u0000\u0000\u0000\u0000\u0000\u0000\u0000\u0000\u0000\u0000\u0000\u0000\u0000\u0000\u0000\u0000\u0000\u0000\u0000\u0000\u0000\u0000",
        "\u0000\u0000\u0000\u0000\u0000\u0000\u0000\u0000\u0000\u0000\u0000\u0000\u0000\u0000\u0000\u0000\u0000\u0000\u0000\u0000\u0000\u0000\u0000\u0000\u0000\u0000\u0000\u0000\u0000\u0000\u0000\u0000\u0000\u0000\u0000\u0000\u0000\u0000",
        "\u0000\u0000\u0000\u0000\u0000\u0000\u0000\u0000\u0000\u0000\u0000\u0000\u0000\u0000\u0000\u0000\u0000\u0000\u0000\u0000\u0000\u0000\u0000\u0000\u0000\u0000\u0000\u0000\u0000\u0000\u0000\u0000\u0000\u0000\u0000\u0000\u0000\u0000",
        "\u0000\u0000\u0000\u0000\u0000\u0000\u0000\u0000\u0000\u0000\u0000\u0000\u0000\u0000\u0000\u0000\u0000\u0000\u0000\u0000\u0000\u0000\u0000\u0000\u0000\u0000\u0000\u0000\u0000\u0000\u0000\u0000\u0000\u0000\u0000\u0000\u0000\u0000",
        "\u0000\u0000\u0000\u0000\u0000\u0000\u0000\u0000\u0000\u0000\u0000\u0000\u0000\u0000\u0000\u0000\u0000\u0000\u0000\u0000\u0000\u0000\u0000\u0000\u0000\u0000\u0000\u0000\u0000\u0000\u0000\u0000\u0000\u0000\u0000\u0000\u0000\u0000",
        "\u0000\u0000\u0000\u0000\u0000\u0000\u0000\u0000\u0000\u0000\u0000\u0000\u0000\u0000\u0000\u0000\u0000\u0000\u0000\u0000\u0000\u0000\u0000\u0000\u0000\u0000\u0000\u0000\u0000\u0000\u0000\u0000\u0000\u0000\u0000\u0000\u0000\u0000",
        "\u0000\u0000\u0000\u0000\u0000\u0000\u0000\u0000\u0000\u0000\u0000\u0000\u0000\u0000\u0000\u0000\u0000\u0000\u0000\u0000\u0000\u0000\u0000\u0000\u0000\u0000\u0000\u0000\u0000\u0000\u0000\u0000\u0000\u0000\u0000\u0000\u0000\u0000",
        "\u0000\u0000\u0000\u0000\u0000\u0000\u0000\u0000\u0000\u0000\u0000\u0000\u0000\u0000\u0000\u0000\u0000\u0000\u0000\u0000\u0000\u0000\u0000\u0000\u0000\u0000\u0000\u0000\u0000\u0000\u0000\u0000\u0000\u0000\u0000\u0000\u0000\u0000",
        "\u0000\u0000\u0000\u0000\u0000\u0000\u0000\u0000\u0000\u0000\u0000\u0000\u0000\u0000\u0000\u0000\u0000\u0000\u0000\u0000\u0000\u0000\u0000\u0000\u0000\u0000\u0000\u0000\u0000\u0000\u0000\u0000\u0000\u0000\u0000\u0000\u0000\u0000",
        "\u0000\u0000\u0000\u0000\u0000\u0000\u0000\u0000\u0000\u0000\u0000\u0000\u0000\u0000\u0000\u0000\u0000\u0000\u0000\u0000\u0000\u0000\u0000\u0000\u0000\u0000\u0000\u0000\u0000\u0000\u0000\u0000\u0000\u0000\u0000\u0000\u0000\u0000",
        "\u0000\u0000\u0000\u0000\u0000\u0000\u0000\u0000\u0000\u0000\u0000\u0000\u0000\u0000\u0000\u0000\u0000\u0000\u0000\u0000\u0000\u0000\u0000\u0000\u0000\u0000\u0000\u0000\u0000\u0000\u0000\u0000\u0000\u0000\u0000\u0000\u0000\u0000",
        "\u0000\u0000\u0000\u0000\u0000\u0000\u0000\u0000\u0000\u0000\u0000\u0000\u0000\u0000\u0000\u0000\u0000\u0000\u0000\u0000\u0000\u0000\u0000\u0000\u0000\u0000\u0000\u0000\u0000\u0000\u0000\u0000\u0000\u0000\u0000\u0000\u0000\u0000",
        "\u0000\u0000\u0000\u0000\u0000\u0000\u0000\u0000\u0000\u0000\u0000\u0000\u0000\u0000\u0000\u0000\u0000\u0000\u0000\u0000\u0000\u0000\u0000\u0000\u0000\u0000\u0000\u0000\u0000\u0000\u0000\u0000\u0000\u0000\u0000\u0000\u0000\u0000",
        "\u0000\u0000\u0000\u0000\u0000\u0000\u0000\u0000\u0000\u0000\u0000\u0000\u0000\u0000\u0000\u0000\u0000\u0000\u0000\u0000\u0000\u0000\u0000\u0000\u0000\u0000\u0000\u0000\u0000\u0000\u0000\u0000\u0000\u0000\u0000\u0000\u0000\u0000",
        "\u0000\u0000\u0000\u0000\u0000\u0000\u0000\u0000\u0000\u0000\u0000\u0000\u0000\u0000\u0000\u0000\u0000\u0000\u0000\u0000\u0000\u0000\u0000\u0000\u0000\u0000\u0000\u0000\u0000\u0000\u0000\u0000\u0000\u0000\u0000\u0000\u0000\u0000",
        "\u0000\u0000\u0000\u0000\u0000\u0000\u0000\u0000\u0000\u0000\u0000\u0000\u0000\u0000\u0000\u0000\u0000\u0000\u0000\u0000\u0000\u0000\u0000\u0000\u0000\u0000\u0000\u0000\u0000\u0000\u0000\u0000\u0000\u0000\u0000\u0000\u0000\u0000",
        "\u0000\u0000\u0000\u0000\u0000\u0000\u0000\u0000\u0000\u0000\u0000\u0000\u0000\u0000\u0000\u0000\u0000\u0000\u0000\u0000\u0000\u0000\u0000\u0000\u0000\u0000\u0000\u0000\u0000\u0000\u0000\u0000\u0000\u0000\u0000\u0000\u0000\u0000",
        "\u0000\u0000\u0000\u0000\u0000\u0000\u0000\u0000\u0000\u0000\u0000\u0000\u0000\u0000\u0000\u0000\u0000\u0000\u0000\u0000\u0000\u0000\u0000\u0000\u0000\u0000\u0000\u0000\u0000\u0000\u0000\u0000\u0000\u0000\u0000\u0000\u0000\u0000",
        "\u0000\u0000\u0000\u0000\u0000\u0000\u0000\u0000\u0000\u0000\u0000\u0000\u0000\u0000\u0000\u0000\u0000\u0000\u0000\u0000\u0000\u0000\u0000\u0000\u0000\u0000\u0000\u0000\u0000\u0000\u0000\u0000\u0000\u0000\u0000\u0000\u0000\u0000",
        "\u0000\u0000\u0000\u0000\u0000\u0000\u0000\u0000\u0000\u0000\u0000\u0000\u0000\u0000\u0000\u0000\u0000\u0000\u0000\u0000\u0000\u0000\u0000\u0000\u0000\u0000\u0000\u0000\u0000\u0000\u0000\u0000\u0000\u0000\u0000\u0000\u0000\u0000",
        "\u0000\u0000\u0000\u0000\u0000\u0000\u0000\u0000\u0000\u0000\u0000\u0000\u0000\u0000\u0000\u0000\u0000\u0000\u0000\u0000\u0000\u0000\u0000\u0000\u0000\u0000\u0000\u0000\u0000\u0000\u0000\u0000\u0000\u0000\u0000\u0000\u0000\u0000",
        "\u0000\u0000\u0000\u0000\u0000\u0000\u0000\u0000\u0000\u0000\u0000\u0000\u0000\u0000\u0000\u0000\u0000\u0000\u0000\u0000\u0000\u0000\u0000\u0000\u0000\u0000\u0000\u0000\u0000\u0000\u0000\u0000\u0000\u0000\u0000\u0000\u0000\u0000",
        "\u0000\u0000\u0000\u0000\u0000\u0000\u0000\u0000\u0000\u0000\u0000\u0000\u0000\u0000\u0000\u0000\u0000\u0000\u0000\u0000\u0000\u0000\u0000\u0000\u0000\u0000\u0000\u0000\u0000\u0000\u0000\u0000\u0000\u0000\u0000\u0000\u0000\u0000",
        "\u0000\u0000\u0000\u0000\u0000\u0000\u0000\u0000\u0000\u0000\u0000\u0000\u0000\u0000\u0000\u0000\u0000\u0000\u0000\u0000\u0000\u0000\u0000\u0000\u0000\u0000\u0000\u0000\u0000\u0000\u0000\u0000\u0000\u0000\u0000\u0000\u0000\u0000",
        "\u0000\u0000\u0000\u0000\u0000\u0000\u0000\u0000\u0000\u0000\u0000\u0000\u0000\u0000\u0000\u0000\u0000\u0000\u0000\u0000\u0000\u0000\u0000\u0000\u0000\u0000\u0000\u0000\u0000\u0000\u0000\u0000\u0000\u0000\u0000\u0000\u0000\u0000",
        "\u0000\u0000\u0000\u0000\u0000\u0000\u0000\u0000\u0000\u0000\u0000\u0000\u0000\u0000\u0000\u0000\u0000\u0000\u0000\u0000\u0000\u0000\u0000\u0000\u0000\u0000\u0000\u0000\u0000\u0000\u0000\u0000\u0000\u0000\u0000\u0000\u0000\u0000",
