{
  "AcquisitionMatrixPE": 70,
  "AcquisitionNumber": 1,
  "AcquisitionTime": "15:36:1.625000",
  "BandwidthPerPixelPhaseEncode": 51.948,
  "BaseResolution": 70,
  "BodyPartExamined": "HEAD",
  "CoilCombinationMethod": "Sum of Squares",
  "ConsistencyInfo": "N4_VE11C_LATEST_20160120",
  "ConversionSoftware": "dcm2niix",
  "ConversionSoftwareVersion": "v1.0.20220720",
  "DerivedVendorReportedEchoSpacing": 0.000550001,
  "DeviceSerialNumber": "66061",
  "DwellTime": 3.3e-06,
  "EchoTime": 0.022,
  "EchoTrainLength": 35,
  "EffectiveEchoSpacing": 0.000275,
  "FlipAngle": 90,
  "HeudiconvVersion": "1.1.1",
  "ImageOrientationPatientDICOM": [0.999998, 0.000971105, -0.00186888, -0.00122175, 0.990268, -0.139171],
  "ImageOrientationText": "Tra>Cor(-8.0)>Sag(-0.1)",
  "ImageType": [
    "ORIGINAL",
    "PRIMARY",
    "M",
    "ND",
    "NORM",
    "MOSAIC"
],
  "ImagingFrequency": 123.255,
  "InPlanePhaseEncodingDirectionDICOM": "COL",
  "InstitutionAddress": "Street StreetNo,City/1c4204/,District,KR,ZIP",
  "InstitutionName": "SKKU",
  "InstitutionalDepartmentName": "Department",
  "MRAcquisitionType": "2D",
  "MagneticFieldStrength": 3,
  "Manufacturer": "Siemens",
  "ManufacturersModelName": "Prisma",
  "MatrixCoilMode": "GRAPPA",
  "Modality": "MR",
  "NonlinearGradientCorrection": false,
  "ParallelReductionFactorInPlane": 2,
  "PartialFourier": 1,
  "PatientPosition": "HFS",
  "PercentPhaseFOV": 100,
  "PercentSampling": 100,
  "PhaseEncodingDirection": "j-",
  "PhaseEncodingSteps": 70,
  "PhaseResolution": 1,
  "PixelBandwidth": 2165,
  "ProcedureStepDescription": "Head^PI:Others",
  "ProtocolName": "BOLD_ep2d_3x3x3_response2",
  "PulseSequenceDetails": "%SiemensSeq%\\ep2d_pace",
  "ReceiveCoilActiveElements": "HC1-6",
  "ReceiveCoilName": "HeadNeck_64",
  "ReconMatrixPE": 70,
  "RefLinesPE": 24,
  "RepetitionTime": 2,
  "SAR": 0.109161,
  "ScanOptions": "FS",
  "ScanningSequence": "EP",
  "SequenceName": "*epfid2d1_70",
  "SequenceVariant": "SK",
  "SeriesDescription": "BOLD_ep2d_3x3x3_response2",
  "SeriesNumber": 5,
  "ShimSetting": [5032, 3744, 4281, 208, -93, -102, -13, 52],
  "SliceThickness": 3,
  "SliceTiming": [0.99, 0, 1.0375, 0.0475, 1.0825, 0.095, 1.13, 0.14, 1.1775, 0.1875, 1.225, 0.235, 1.2725, 0.2825, 1.32, 0.33, 1.3675, 0.3775, 1.4125, 0.4225, 1.46, 0.47, 1.5075, 0.5175, 1.555, 0.565, 1.6025, 0.6125, 1.65, 0.66, 1.6975, 0.7075, 1.7425, 0.7525, 1.79, 0.8, 1.8375, 0.8475, 1.885, 0.895, 1.9325, 0.9425],
  "SoftwareVersions": "syngo MR E11",
  "SpacingBetweenSlices": 3,
  "StationName": "AWP66061",
  "TaskName": "response",
  "TotalReadoutTime": 0.018975,
  "TxRefAmp": 219.604,
  "dcmmeta_affine": [
    [-2.999993324279785, -0.003665251424536109, -0.00514662591740489, 107.79801177978516],
    [-0.0029133139178156853, 2.9708027839660645, -0.41751953959465027, -92.9425048828125],
    [-0.005606641061604023, 0.41751357913017273, 2.970799684524536, -54.33503341674805],
    [0.0, 0.0, 0.0, 1.0]
],
  "dcmmeta_reorient_transform": [
    [0.0, -1.0, 0.0, 69.0],
    [1.0, 0.0, 0.0, 0.0],
    [0.0, 0.0, -1.0, 41.0],
    [0.0, 0.0, 0.0, 1.0]
],
  "dcmmeta_shape": [70, 70, 42, 341],
  "dcmmeta_slice_dim": 2,
  "dcmmeta_version": 0.6,
  "global": {
    "const": {
      "AcquisitionMatrix": [70, 0, 0, 70],
      "AngioFlag": "N",
      "BitsAllocated": 16,
      "BitsStored": 12,
      "BodyPartExamined": "HEAD",
      "Columns": 490,
      "EchoNumbers": 1,
      "EchoTime": 22.0,
      "EchoTrainLength": 35,
      "FlipAngle": 90.0,
      "HighBit": 11,
      "ImageOrientationPatient": [0.99999778211848, 0.00097110466425, -0.0018688803744, -0.0012217504965, 0.99026758268182, -0.1391711967874],
      "ImagePositionPatient": [-736.56299444062, -719.40495767556, 185.13144432375],
      "ImageType": [
        "ORIGINAL",
        "PRIMARY",
        "M",
        "ND",
        "NORM",
        "MOSAIC"
],
      "ImagedNucleus": "1H",
      "ImagingFrequency": 123.254589,
      "InPlanePhaseEncodingDirection": "COL",
      "MRAcquisitionType": "2D",
      "MagneticFieldStrength": 3.0,
      "Manufacturer": "SIEMENS",
      "ManufacturerModelName": "Prisma",
      "Modality": "MR",
      "NumberOfAverages": 1.0,
      "NumberOfPhaseEncodingSteps": 70,
      "PercentPhaseFieldOfView": 100.0,
      "PercentSampling": 100.0,
      "PerformedProcedureStepStartTime": "151712.805000",
      "PhotometricInterpretation": "MONOCHROME2",
      "PixelBandwidth": 2165.0,
      "PixelRepresentation": 0,
      "PixelSpacing": [3.0, 3.0],
      "ProtocolName": "BOLD_ep2d_3x3x3_response2",
      "RepetitionTime": 2000.0,
      "Rows": 490,
      "SAR": 0.10916075616723,
      "SamplesPerPixel": 1,
      "ScanOptions": "FS",
      "ScanningSequence": "EP",
      "SequenceName": "*epfid2d1_70",
      "SequenceVariant": "SK",
      "SeriesDescription": "BOLD_ep2d_3x3x3_response2",
      "SeriesNumber": 5,
      "SeriesTime": "153648.822000",
      "SliceLocation": 81.944006749814,
      "SliceThickness": 3.0,
      "SmallestImagePixelValue": 0,
      "SoftwareVersions": "syngo MR E11",
      "SpacingBetweenSlices": 3.000000075354,
      "SpecificCharacterSet": "ISO_IR 100",
      "StudyID": "1",
      "StudyTime": "151712.749000",
      "TransmitCoilName": "Body",
      "VariableFlipAngleFlag": "N",
      "WindowCenterWidthExplanation": "Algo1",
      "dBdt": 0.0},
    "slices": {}
  },
  "time": {
    "samples": {
      "AcquisitionNumber": [1, 2, 3, 4, 5, 6, 7, 8, 9, 10, 11, 12, 13, 14, 15, 16, 17, 18, 19, 20, 21, 22, 23, 24, 25, 26, 27, 28, 29, 30, 31, 32, 33, 34, 35, 36, 37, 38, 39, 40, 41, 42, 43, 44, 45, 46, 47, 48, 49, 50, 51, 52, 53, 54, 55, 56, 57, 58, 59, 60, 61, 62, 63, 64, 65, 66, 67, 68, 69, 70, 71, 72, 73, 74, 75, 76, 77, 78, 79, 80, 81, 82, 83, 84, 85, 86, 87, 88, 89, 90, 91, 92, 93, 94, 95, 96, 97, 98, 99, 100, 101, 102, 103, 104, 105, 106, 107, 108, 109, 110, 111, 112, 113, 114, 115, 116, 117, 118, 119, 120, 121, 122, 123, 124, 125, 126, 127, 128, 129, 130, 131, 132, 133, 134, 135, 136, 137, 138, 139, 140, 141, 142, 143, 144, 145, 146, 147, 148, 149, 150, 151, 152, 153, 154, 155, 156, 157, 158, 159, 160, 161, 162, 163, 164, 165, 166, 167, 168, 169, 170, 171, 172, 173, 174, 175, 176, 177, 178, 179, 180, 181, 182, 183, 184, 185, 186, 187, 188, 189, 190, 191, 192, 193, 194, 195, 196, 197, 198, 199, 200, 201, 202, 203, 204, 205, 206, 207, 208, 209, 210, 211, 212, 213, 214, 215, 216, 217, 218, 219, 220, 221, 222, 223, 224, 225, 226, 227, 228, 229, 230, 231, 232, 233, 234, 235, 236, 237, 238, 239, 240, 241, 242, 243, 244, 245, 246, 247, 248, 249, 250, 251, 252, 253, 254, 255, 256, 257, 258, 259, 260, 261, 262, 263, 264, 265, 266, 267, 268, 269, 270, 271, 272, 273, 274, 275, 276, 277, 278, 279, 280, 281, 282, 283, 284, 285, 286, 287, 288, 289, 290, 291, 292, 293, 294, 295, 296, 297, 298, 299, 300, 301, 302, 303, 304, 305, 306, 307, 308, 309, 310, 311, 312, 313, 314, 315, 316, 317, 318, 319, 320, 321, 322, 323, 324, 325, 326, 327, 328, 329, 330, 331, 332, 333, 334, 335, 336, 337, 338, 339, 340, 341],
      "AcquisitionTime": ["153601.625000", "153603.625000", "153605.625000", "153607.625000", "153609.625000", "153611.625000", "153613.625000", "153615.625000", "153617.625000", "153619.625000", "153621.625000", "153623.625000", "153625.625000", "153627.625000", "153629.625000", "153631.625000", "153633.625000", "153635.625000", "153637.625000", "153639.625000", "153641.625000", "153643.625000", "153645.625000", "153647.625000", "153649.625000", "153651.625000", "153653.625000", "153655.625000", "153657.625000", "153659.625000", "153701.625000", "153703.625000", "153705.625000", "153707.625000", "153709.625000", "153711.625000", "153713.625000", "153715.625000", "153717.625000", "153719.625000", "153721.625000", "153723.625000", "153725.625000", "153727.625000", "153729.625000", "153731.625000", "153733.625000", "153735.625000", "153737.625000", "153739.625000", "153741.625000", "153743.625000", "153745.625000", "153747.625000", "153749.625000", "153751.625000", "153753.625000", "153755.625000", "153757.625000", "153759.625000", "153801.625000", "153803.625000", "153805.625000", "153807.625000", "153809.625000", "153811.625000", "153813.625000", "153815.625000", "153817.625000", "153819.625000", "153821.625000", "153823.625000", "153825.625000", "153827.625000", "153829.625000", "153831.625000", "153833.625000", "153835.625000", "153837.625000", "153839.625000", "153841.625000", "153843.625000", "153845.625000", "153847.625000", "153849.625000", "153851.625000", "153853.625000", "153855.625000", "153857.625000", "153859.625000", "153901.625000", "153903.625000", "153905.625000", "153907.625000", "153909.625000", "153911.625000", "153913.625000", "153915.625000", "153917.625000", "153919.625000", "153921.625000", "153923.625000", "153925.625000", "153927.625000", "153929.625000", "153931.625000", "153933.625000", "153935.625000", "153937.625000", "153939.625000", "153941.625000", "153943.625000", "153945.625000", "153947.625000", "153949.625000", "153951.625000", "153953.625000", "153955.625000", "153957.625000", "153959.625000", "154001.625000", "154003.625000", "154005.625000", "154007.625000", "154009.625000", "154011.625000", "154013.625000", "154015.625000", "154017.625000", "154019.625000", "154021.625000", "154023.625000", "154025.625000", "154027.625000", "154029.625000", "154031.625000", "154033.625000", "154035.625000", "154037.625000", "154039.625000", "154041.625000", "154043.625000", "154045.625000", "154047.625000", "154049.625000", "154051.625000", "154053.625000", "154055.625000", "154057.625000", "154059.625000", "154101.625000", "154103.625000", "154105.625000", "154107.625000", "154109.625000", "154111.625000", "154113.625000", "154115.625000", "154117.625000", "154119.625000", "154121.625000", "154123.625000", "154125.625000", "154127.625000", "154129.625000", "154131.625000", "154133.625000", "154135.625000", "154137.625000", "154139.625000", "154141.625000", "154143.625000", "154145.625000", "154147.625000", "154149.625000", "154151.625000", "154153.625000", "154155.625000", "154157.625000", "154159.625000", "154201.625000", "154203.625000", "154205.625000", "154207.625000", "154209.625000", "154211.625000", "154213.625000", "154215.625000", "154217.625000", "154219.625000", "154221.625000", "154223.625000", "154225.625000", "154227.625000", "154229.625000", "154231.625000", "154233.625000", "154235.625000", "154237.625000", "154239.625000", "154241.625000", "154243.625000", "154245.625000", "154247.625000", "154249.625000", "154251.625000", "154253.625000", "154255.625000", "154257.625000", "154259.625000", "154301.625000", "154303.625000", "154305.625000", "154307.625000", "154309.625000", "154311.625000", "154313.625000", "154315.625000", "154317.625000", "154319.625000", "154321.625000", "154323.625000", "154325.625000", "154327.625000", "154329.625000", "154331.625000", "154333.625000", "154335.625000", "154337.625000", "154339.625000", "154341.625000", "154343.625000", "154345.625000", "154347.625000", "154349.625000", "154351.625000", "154353.625000", "154355.625000", "154357.625000", "154359.625000", "154401.625000", "154403.625000", "154405.625000", "154407.625000", "154409.625000", "154411.625000", "154413.625000", "154415.625000", "154417.625000", "154419.625000", "154421.625000", "154423.625000", "154425.625000", "154427.625000", "154429.625000", "154431.625000", "154433.625000", "154435.625000", "154437.625000", "154439.625000", "154441.625000", "154443.625000", "154445.625000", "154447.625000", "154449.625000", "154451.625000", "154453.625000", "154455.625000", "154457.625000", "154459.625000", "154501.625000", "154503.625000", "154505.625000", "154507.625000", "154509.625000", "154511.625000", "154513.625000", "154515.625000", "154517.625000", "154519.625000", "154521.625000", "154523.625000", "154525.625000", "154527.625000", "154529.625000", "154531.625000", "154533.625000", "154535.625000", "154537.625000", "154539.625000", "154541.625000", "154543.625000", "154545.625000", "154547.625000", "154549.625000", "154551.625000", "154553.625000", "154555.625000", "154557.625000", "154559.625000", "154601.625000", "154603.625000", "154605.625000", "154607.625000", "154609.625000", "154611.625000", "154613.625000", "154615.625000", "154617.625000", "154619.625000", "154621.625000", "154623.625000", "154625.625000", "154627.625000", "154629.625000", "154631.625000", "154633.625000", "154635.625000", "154637.625000", "154639.625000", "154641.625000", "154643.625000", "154645.625000", "154647.625000", "154649.625000", "154651.625000", "154653.625000", "154655.625000", "154657.625000", "154659.625000", "154701.625000", "154703.625000", "154705.625000", "154707.625000", "154709.625000", "154711.625000", "154713.625000", "154715.625000", "154717.625000", "154719.625000", "154721.625000"],
      "ContentTime": ["153648.825000", "153648.829000", "153648.832000", "153648.840000", "153648.843000", "153648.845000", "153648.848000", "153648.851000", "153648.853000", "153648.856000", "153648.859000", "153648.861000", "153648.869000", "153648.872000", "153648.874000", "153648.877000", "153648.880000", "153648.888000", "153648.891000", "153648.893000", "153648.896000", "153648.899000", "153648.901000", "153728.821000", "153728.824000", "153728.826000", "153728.829000", "153728.832000", "153728.835000", "153728.837000", "153728.840000", "153728.842000", "153728.845000", "153728.848000", "153728.850000", "153728.853000", "153728.856000", "153728.858000", "153728.861000", "153728.864000", "153728.867000", "153728.869000", "153728.872000", "153748.821000", "153748.824000", "153748.827000", "153748.829000", "153748.832000", "153748.835000", "153748.837000", "153748.840000", "153748.843000", "153748.845000", "153828.821000", "153828.823000", "153828.826000", "153828.829000", "153828.832000", "153828.834000", "153828.837000", "153828.840000", "153828.842000", "153828.845000", "153828.847000", "153828.850000", "153828.853000", "153828.855000", "153828.858000", "153828.861000", "153828.864000", "153828.866000", "153828.869000", "153828.872000", "153908.821000", "153908.823000", "153908.826000", "153908.829000", "153908.831000", "153908.834000", "153908.837000", "153908.840000", "153908.842000", "153908.845000", "153908.847000", "153908.850000", "153908.853000", "153908.856000", "153908.858000", "153908.861000", "153908.864000", "153908.867000", "153908.869000", "153908.872000", "153948.821000", "153948.823000", "153948.826000", "153948.829000", "153948.832000", "153948.834000", "153948.837000", "153948.840000", "153948.842000", "153948.858000", "153948.861000", "153948.864000", "153948.866000", "153948.869000", "153948.872000", "153948.875000", "153948.877000", "153948.880000", "153948.883000", "153948.885000", "154028.822000", "154028.824000", "154028.827000", "154028.830000", "154028.832000", "154028.835000", "154028.838000", "154028.841000", "154028.843000", "154028.852000", "154028.855000", "154028.857000", "154028.860000", "154028.863000", "154028.865000", "154028.868000", "154028.871000", "154028.874000", "154028.876000", "154028.879000", "154108.821000", "154108.823000", "154108.826000", "154108.829000", "154108.832000", "154108.834000", "154108.837000", "154108.840000", "154108.842000", "154108.845000", "154108.848000", "154108.850000", "154108.853000", "154108.856000", "154108.858000", "154108.861000", "154108.864000", "154108.867000", "154108.869000", "154108.872000", "154148.821000", "154148.823000", "154148.826000", "154148.829000", "154148.832000", "154148.834000", "154148.837000", "154148.840000", "154148.842000", "154148.845000", "154148.848000", "154148.851000", "154148.853000", "154148.856000", "154148.859000", "154148.861000", "154148.864000", "154148.867000", "154148.870000", "154148.873000", "154228.822000", "154228.824000", "154228.827000", "154228.830000", "154228.833000", "154228.835000", "154228.838000", "154228.841000", "154228.843000", "154228.846000", "154228.849000", "154228.852000", "154228.854000", "154228.857000", "154228.860000", "154228.862000", "154228.865000", "154228.868000", "154228.871000", "154228.873000", "154308.821000", "154308.824000", "154308.826000", "154308.829000", "154308.832000", "154308.834000", "154308.837000", "154308.840000", "154308.843000", "154308.845000", "154308.848000", "154308.851000", "154308.853000", "154308.856000", "154308.859000", "154308.862000", "154308.864000", "154308.867000", "154308.870000", "154308.872000", "154348.821000", "154348.823000", "154348.826000", "154348.829000", "154348.832000", "154348.834000", "154348.837000", "154348.840000", "154348.843000", "154348.845000", "154348.848000", "154348.851000", "154348.854000", "154348.856000", "154348.859000", "154348.862000", "154348.864000", "154348.867000", "154348.870000", "154348.872000", "154428.821000", "154428.823000", "154428.826000", "154428.829000", "154428.832000", "154428.834000", "154428.837000", "154428.840000", "154428.843000", "154428.845000", "154428.848000", "154428.851000", "154428.853000", "154428.856000", "154428.859000", "154428.862000", "154428.864000", "154428.867000", "154428.870000", "154428.872000", "154508.822000", "154508.824000", "154508.827000", "154508.830000", "154508.833000", "154508.835000", "154508.838000", "154508.841000", "154508.843000", "154508.846000", "154508.849000", "154508.852000", "154508.854000", "154508.857000", "154508.860000", "154508.862000", "154508.865000", "154508.868000", "154508.870000", "154508.873000", "154548.821000", "154548.824000", "154548.826000", "154548.829000", "154548.832000", "154548.834000", "154548.837000", "154548.840000", "154548.843000", "154548.845000", "154548.848000", "154548.851000", "154548.853000", "154548.856000", "154548.859000", "154548.862000", "154548.864000", "154548.867000", "154548.870000", "154548.872000", "154628.821000", "154628.823000", "154628.826000", "154628.829000", "154628.832000", "154628.834000", "154628.837000", "154628.840000", "154628.842000", "154628.845000", "154628.848000", "154628.851000", "154628.853000", "154628.856000", "154628.859000", "154628.862000", "154628.864000", "154628.867000", "154628.870000", "154628.872000", "154708.822000", "154708.824000", "154708.827000", "154708.830000", "154708.833000", "154708.835000", "154708.838000", "154708.841000", "154708.843000", "154708.846000", "154708.849000", "154708.852000", "154708.854000", "154708.857000", "154708.860000", "154708.863000", "154708.865000", "154708.868000", "154708.871000", "154708.874000", "154723.348000", "154723.351000", "154723.353000", "154723.362000", "154723.365000", "154723.368000", "154723.370000", "154723.373000"],
      "DataSetTrailingPadding": [
        "\u0000\u0000\u0000\u0000\u0000\u0000\u0000\u0000\u0000\u0000\u0000\u0000\u0000\u0000\u0000\u0000\u0000\u0000\u0000\u0000\u0000\u0000\u0000\u0000\u0000\u0000\u0000\u0000\u0000\u0000\u0000\u0000\u0000\u0000\u0000\u0000\u0000\u0000\u0000\u0000\u0000\u0000\u0000\u0000\u0000\u0000\u0000\u0000\u0000\u0000\u0000\u0000",
        "\u0000\u0000\u0000\u0000\u0000\u0000\u0000\u0000\u0000\u0000\u0000\u0000\u0000\u0000\u0000\u0000\u0000\u0000\u0000\u0000\u0000\u0000\u0000\u0000\u0000\u0000\u0000\u0000\u0000\u0000\u0000\u0000\u0000\u0000\u0000\u0000\u0000\u0000\u0000\u0000\u0000\u0000\u0000\u0000\u0000\u0000\u0000\u0000\u0000\u0000",
        "\u0000\u0000\u0000\u0000\u0000\u0000\u0000\u0000\u0000\u0000\u0000\u0000\u0000\u0000\u0000\u0000\u0000\u0000\u0000\u0000\u0000\u0000\u0000\u0000\u0000\u0000\u0000\u0000\u0000\u0000\u0000\u0000\u0000\u0000\u0000\u0000\u0000\u0000\u0000\u0000\u0000\u0000\u0000\u0000\u0000\u0000\u0000\u0000\u0000\u0000",
        "\u0000\u0000\u0000\u0000\u0000\u0000\u0000\u0000\u0000\u0000\u0000\u0000\u0000\u0000\u0000\u0000\u0000\u0000\u0000\u0000\u0000\u0000\u0000\u0000\u0000\u0000\u0000\u0000\u0000\u0000\u0000\u0000\u0000\u0000\u0000\u0000\u0000\u0000\u0000\u0000\u0000\u0000\u0000\u0000\u0000\u0000\u0000\u0000\u0000\u0000",
        "\u0000\u0000\u0000\u0000\u0000\u0000\u0000\u0000\u0000\u0000\u0000\u0000\u0000\u0000\u0000\u0000\u0000\u0000\u0000\u0000\u0000\u0000\u0000\u0000\u0000\u0000\u0000\u0000\u0000\u0000\u0000\u0000\u0000\u0000\u0000\u0000\u0000\u0000\u0000\u0000\u0000\u0000\u0000\u0000\u0000\u0000\u0000\u0000",
        "\u0000\u0000\u0000\u0000\u0000\u0000\u0000\u0000\u0000\u0000\u0000\u0000\u0000\u0000\u0000\u0000\u0000\u0000\u0000\u0000\u0000\u0000\u0000\u0000\u0000\u0000\u0000\u0000\u0000\u0000\u0000\u0000\u0000\u0000\u0000\u0000\u0000\u0000\u0000\u0000\u0000\u0000\u0000\u0000\u0000\u0000\u0000\u0000",
        "\u0000\u0000\u0000\u0000\u0000\u0000\u0000\u0000\u0000\u0000\u0000\u0000\u0000\u0000\u0000\u0000\u0000\u0000\u0000\u0000\u0000\u0000\u0000\u0000\u0000\u0000\u0000\u0000\u0000\u0000\u0000\u0000\u0000\u0000\u0000\u0000\u0000\u0000\u0000\u0000\u0000\u0000\u0000\u0000\u0000\u0000\u0000\u0000",
        "\u0000\u0000\u0000\u0000\u0000\u0000\u0000\u0000\u0000\u0000\u0000\u0000\u0000\u0000\u0000\u0000\u0000\u0000\u0000\u0000\u0000\u0000\u0000\u0000\u0000\u0000\u0000\u0000\u0000\u0000\u0000\u0000\u0000\u0000\u0000\u0000\u0000\u0000\u0000\u0000\u0000\u0000\u0000\u0000\u0000\u0000\u0000\u0000",
        "\u0000\u0000\u0000\u0000\u0000\u0000\u0000\u0000\u0000\u0000\u0000\u0000\u0000\u0000\u0000\u0000\u0000\u0000\u0000\u0000\u0000\u0000\u0000\u0000\u0000\u0000\u0000\u0000\u0000\u0000\u0000\u0000\u0000\u0000\u0000\u0000\u0000\u0000\u0000\u0000\u0000\u0000\u0000\u0000\u0000\u0000\u0000\u0000",
        "\u0000\u0000\u0000\u0000\u0000\u0000\u0000\u0000\u0000\u0000\u0000\u0000\u0000\u0000\u0000\u0000\u0000\u0000\u0000\u0000\u0000\u0000\u0000\u0000\u0000\u0000\u0000\u0000\u0000\u0000\u0000\u0000\u0000\u0000\u0000\u0000\u0000\u0000\u0000\u0000\u0000\u0000\u0000\u0000\u0000\u0000\u0000\u0000",
        "\u0000\u0000\u0000\u0000\u0000\u0000\u0000\u0000\u0000\u0000\u0000\u0000\u0000\u0000\u0000\u0000\u0000\u0000\u0000\u0000\u0000\u0000\u0000\u0000\u0000\u0000\u0000\u0000\u0000\u0000\u0000\u0000\u0000\u0000\u0000\u0000\u0000\u0000\u0000\u0000\u0000\u0000\u0000\u0000\u0000\u0000\u0000\u0000",
        "\u0000\u0000\u0000\u0000\u0000\u0000\u0000\u0000\u0000\u0000\u0000\u0000\u0000\u0000\u0000\u0000\u0000\u0000\u0000\u0000\u0000\u0000\u0000\u0000\u0000\u0000\u0000\u0000\u0000\u0000\u0000\u0000\u0000\u0000\u0000\u0000\u0000\u0000\u0000\u0000\u0000\u0000\u0000\u0000\u0000\u0000\u0000\u0000",
        "\u0000\u0000\u0000\u0000\u0000\u0000\u0000\u0000\u0000\u0000\u0000\u0000\u0000\u0000\u0000\u0000\u0000\u0000\u0000\u0000\u0000\u0000\u0000\u0000\u0000\u0000\u0000\u0000\u0000\u0000\u0000\u0000\u0000\u0000\u0000\u0000\u0000\u0000\u0000\u0000\u0000\u0000\u0000\u0000\u0000\u0000\u0000\u0000",
        "\u0000\u0000\u0000\u0000\u0000\u0000\u0000\u0000\u0000\u0000\u0000\u0000\u0000\u0000\u0000\u0000\u0000\u0000\u0000\u0000\u0000\u0000\u0000\u0000\u0000\u0000\u0000\u0000\u0000\u0000\u0000\u0000\u0000\u0000\u0000\u0000\u0000\u0000\u0000\u0000\u0000\u0000\u0000\u0000\u0000\u0000\u0000\u0000",
        "\u0000\u0000\u0000\u0000\u0000\u0000\u0000\u0000\u0000\u0000\u0000\u0000\u0000\u0000\u0000\u0000\u0000\u0000\u0000\u0000\u0000\u0000\u0000\u0000\u0000\u0000\u0000\u0000\u0000\u0000\u0000\u0000\u0000\u0000\u0000\u0000\u0000\u0000\u0000\u0000\u0000\u0000\u0000\u0000\u0000\u0000\u0000\u0000",
        "\u0000\u0000\u0000\u0000\u0000\u0000\u0000\u0000\u0000\u0000\u0000\u0000\u0000\u0000\u0000\u0000\u0000\u0000\u0000\u0000\u0000\u0000\u0000\u0000\u0000\u0000\u0000\u0000\u0000\u0000\u0000\u0000\u0000\u0000\u0000\u0000\u0000\u0000\u0000\u0000\u0000\u0000\u0000\u0000\u0000\u0000\u0000\u0000",
        "\u0000\u0000\u0000\u0000\u0000\u0000\u0000\u0000\u0000\u0000\u0000\u0000\u0000\u0000\u0000\u0000\u0000\u0000\u0000\u0000\u0000\u0000\u0000\u0000\u0000\u0000\u0000\u0000\u0000\u0000\u0000\u0000\u0000\u0000\u0000\u0000\u0000\u0000\u0000\u0000\u0000\u0000\u0000\u0000\u0000\u0000\u0000\u0000",
        "\u0000\u0000\u0000\u0000\u0000\u0000\u0000\u0000\u0000\u0000\u0000\u0000\u0000\u0000\u0000\u0000\u0000\u0000\u0000\u0000\u0000\u0000\u0000\u0000\u0000\u0000\u0000\u0000\u0000\u0000\u0000\u0000\u0000\u0000\u0000\u0000\u0000\u0000\u0000\u0000\u0000\u0000\u0000\u0000\u0000\u0000\u0000\u0000",
        "\u0000\u0000\u0000\u0000\u0000\u0000\u0000\u0000\u0000\u0000\u0000\u0000\u0000\u0000\u0000\u0000\u0000\u0000\u0000\u0000\u0000\u0000\u0000\u0000\u0000\u0000\u0000\u0000\u0000\u0000\u0000\u0000\u0000\u0000\u0000\u0000\u0000\u0000\u0000\u0000\u0000\u0000\u0000\u0000\u0000\u0000\u0000\u0000",
        "\u0000\u0000\u0000\u0000\u0000\u0000\u0000\u0000\u0000\u0000\u0000\u0000\u0000\u0000\u0000\u0000\u0000\u0000\u0000\u0000\u0000\u0000\u0000\u0000\u0000\u0000\u0000\u0000\u0000\u0000\u0000\u0000\u0000\u0000\u0000\u0000\u0000\u0000\u0000\u0000\u0000\u0000\u0000\u0000\u0000\u0000\u0000\u0000",
        "\u0000\u0000\u0000\u0000\u0000\u0000\u0000\u0000\u0000\u0000\u0000\u0000\u0000\u0000\u0000\u0000\u0000\u0000\u0000\u0000\u0000\u0000\u0000\u0000\u0000\u0000\u0000\u0000\u0000\u0000\u0000\u0000\u0000\u0000\u0000\u0000\u0000\u0000\u0000\u0000\u0000\u0000\u0000\u0000\u0000\u0000\u0000\u0000",
        "\u0000\u0000\u0000\u0000\u0000\u0000\u0000\u0000\u0000\u0000\u0000\u0000\u0000\u0000\u0000\u0000\u0000\u0000\u0000\u0000\u0000\u0000\u0000\u0000\u0000\u0000\u0000\u0000\u0000\u0000\u0000\u0000\u0000\u0000\u0000\u0000\u0000\u0000\u0000\u0000\u0000\u0000\u0000\u0000\u0000\u0000\u0000\u0000",
        "\u0000\u0000\u0000\u0000\u0000\u0000\u0000\u0000\u0000\u0000\u0000\u0000\u0000\u0000\u0000\u0000\u0000\u0000\u0000\u0000\u0000\u0000\u0000\u0000\u0000\u0000\u0000\u0000\u0000\u0000\u0000\u0000\u0000\u0000\u0000\u0000\u0000\u0000\u0000\u0000\u0000\u0000\u0000\u0000\u0000\u0000\u0000\u0000",
        "\u0000\u0000\u0000\u0000\u0000\u0000\u0000\u0000\u0000\u0000\u0000\u0000\u0000\u0000\u0000\u0000\u0000\u0000\u0000\u0000\u0000\u0000\u0000\u0000\u0000\u0000\u0000\u0000\u0000\u0000\u0000\u0000\u0000\u0000\u0000\u0000\u0000\u0000\u0000\u0000\u0000\u0000\u0000\u0000\u0000\u0000\u0000\u0000",
        "\u0000\u0000\u0000\u0000\u0000\u0000\u0000\u0000\u0000\u0000\u0000\u0000\u0000\u0000\u0000\u0000\u0000\u0000\u0000\u0000\u0000\u0000\u0000\u0000\u0000\u0000\u0000\u0000\u0000\u0000\u0000\u0000\u0000\u0000\u0000\u0000\u0000\u0000\u0000\u0000\u0000\u0000\u0000\u0000\u0000\u0000\u0000\u0000",
        "\u0000\u0000\u0000\u0000\u0000\u0000\u0000\u0000\u0000\u0000\u0000\u0000\u0000\u0000\u0000\u0000\u0000\u0000\u0000\u0000\u0000\u0000\u0000\u0000\u0000\u0000\u0000\u0000\u0000\u0000\u0000\u0000\u0000\u0000\u0000\u0000\u0000\u0000\u0000\u0000\u0000\u0000\u0000\u0000\u0000\u0000\u0000\u0000",
        "\u0000\u0000\u0000\u0000\u0000\u0000\u0000\u0000\u0000\u0000\u0000\u0000\u0000\u0000\u0000\u0000\u0000\u0000\u0000\u0000\u0000\u0000\u0000\u0000\u0000\u0000\u0000\u0000\u0000\u0000\u0000\u0000\u0000\u0000\u0000\u0000\u0000\u0000\u0000\u0000\u0000\u0000\u0000\u0000\u0000\u0000\u0000\u0000",
        "\u0000\u0000\u0000\u0000\u0000\u0000\u0000\u0000\u0000\u0000\u0000\u0000\u0000\u0000\u0000\u0000\u0000\u0000\u0000\u0000\u0000\u0000\u0000\u0000\u0000\u0000\u0000\u0000\u0000\u0000\u0000\u0000\u0000\u0000\u0000\u0000\u0000\u0000\u0000\u0000\u0000\u0000\u0000\u0000\u0000\u0000\u0000\u0000",
        "\u0000\u0000\u0000\u0000\u0000\u0000\u0000\u0000\u0000\u0000\u0000\u0000\u0000\u0000\u0000\u0000\u0000\u0000\u0000\u0000\u0000\u0000\u0000\u0000\u0000\u0000\u0000\u0000\u0000\u0000\u0000\u0000\u0000\u0000\u0000\u0000\u0000\u0000\u0000\u0000\u0000\u0000\u0000\u0000\u0000\u0000\u0000\u0000",
        "\u0000\u0000\u0000\u0000\u0000\u0000\u0000\u0000\u0000\u0000\u0000\u0000\u0000\u0000\u0000\u0000\u0000\u0000\u0000\u0000\u0000\u0000\u0000\u0000\u0000\u0000\u0000\u0000\u0000\u0000\u0000\u0000\u0000\u0000\u0000\u0000\u0000\u0000\u0000\u0000\u0000\u0000\u0000\u0000\u0000\u0000\u0000\u0000",
        "\u0000\u0000\u0000\u0000\u0000\u0000\u0000\u0000\u0000\u0000\u0000\u0000\u0000\u0000\u0000\u0000\u0000\u0000\u0000\u0000\u0000\u0000\u0000\u0000\u0000\u0000\u0000\u0000\u0000\u0000\u0000\u0000\u0000\u0000\u0000\u0000\u0000\u0000\u0000\u0000\u0000\u0000\u0000\u0000\u0000\u0000\u0000\u0000",
        "\u0000\u0000\u0000\u0000\u0000\u0000\u0000\u0000\u0000\u0000\u0000\u0000\u0000\u0000\u0000\u0000\u0000\u0000\u0000\u0000\u0000\u0000\u0000\u0000\u0000\u0000\u0000\u0000\u0000\u0000\u0000\u0000\u0000\u0000\u0000\u0000\u0000\u0000\u0000\u0000\u0000\u0000\u0000\u0000\u0000\u0000\u0000\u0000",
        "\u0000\u0000\u0000\u0000\u0000\u0000\u0000\u0000\u0000\u0000\u0000\u0000\u0000\u0000\u0000\u0000\u0000\u0000\u0000\u0000\u0000\u0000\u0000\u0000\u0000\u0000\u0000\u0000\u0000\u0000\u0000\u0000\u0000\u0000\u0000\u0000\u0000\u0000\u0000\u0000\u0000\u0000\u0000\u0000\u0000\u0000\u0000\u0000",
        "\u0000\u0000\u0000\u0000\u0000\u0000\u0000\u0000\u0000\u0000\u0000\u0000\u0000\u0000\u0000\u0000\u0000\u0000\u0000\u0000\u0000\u0000\u0000\u0000\u0000\u0000\u0000\u0000\u0000\u0000\u0000\u0000\u0000\u0000\u0000\u0000\u0000\u0000\u0000\u0000\u0000\u0000\u0000\u0000\u0000\u0000\u0000\u0000",
        "\u0000\u0000\u0000\u0000\u0000\u0000\u0000\u0000\u0000\u0000\u0000\u0000\u0000\u0000\u0000\u0000\u0000\u0000\u0000\u0000\u0000\u0000\u0000\u0000\u0000\u0000\u0000\u0000\u0000\u0000\u0000\u0000\u0000\u0000\u0000\u0000\u0000\u0000\u0000\u0000\u0000\u0000\u0000\u0000\u0000\u0000\u0000\u0000",
        "\u0000\u0000\u0000\u0000\u0000\u0000\u0000\u0000\u0000\u0000\u0000\u0000\u0000\u0000\u0000\u0000\u0000\u0000\u0000\u0000\u0000\u0000\u0000\u0000\u0000\u0000\u0000\u0000\u0000\u0000\u0000\u0000\u0000\u0000\u0000\u0000\u0000\u0000\u0000\u0000\u0000\u0000\u0000\u0000\u0000\u0000\u0000\u0000",
        "\u0000\u0000\u0000\u0000\u0000\u0000\u0000\u0000\u0000\u0000\u0000\u0000\u0000\u0000\u0000\u0000\u0000\u0000\u0000\u0000\u0000\u0000\u0000\u0000\u0000\u0000\u0000\u0000\u0000\u0000\u0000\u0000\u0000\u0000\u0000\u0000\u0000\u0000\u0000\u0000\u0000\u0000\u0000\u0000\u0000\u0000\u0000\u0000",
