{
  "AcquisitionMatrixPE": 70,
  "AcquisitionNumber": 1,
  "AcquisitionTime": "11:30:40.835000",
  "BandwidthPerPixelPhaseEncode": 51.948,
  "BaseResolution": 70,
  "BodyPartExamined": "HEAD",
  "CoilCombinationMethod": "Sum of Squares",
  "ConsistencyInfo": "N4_VE11C_LATEST_20160120",
  "ConversionSoftware": "dcm2niix",
  "ConversionSoftwareVersion": "v1.0.20220720",
  "DerivedVendorReportedEchoSpacing": 0.000550001,
  "DeviceSerialNumber": "66061",
  "DwellTime": 3.3e-06,
  "EchoTime": 0.022,
  "EchoTrainLength": 35,
  "EffectiveEchoSpacing": 0.000275,
  "FlipAngle": 90,
  "HeudiconvVersion": "1.1.1",
  "ImageOrientationPatientDICOM": [0.994884, 0.0209163, 0.0988396, -0.0012155, 0.980741, -0.195308],
  "ImageOrientationText": "Tra>Cor(-11.3)>Sag(5.8)",
  "ImageType": [
    "ORIGINAL",
    "PRIMARY",
    "M",
    "ND",
    "NORM",
    "MOSAIC"
],
  "ImagingFrequency": 123.255,
  "InPlanePhaseEncodingDirectionDICOM": "COL",
  "InstitutionAddress": "Street StreetNo,City/1c4204/,District,KR,ZIP",
  "InstitutionName": "SKKU",
  "InstitutionalDepartmentName": "Department",
  "MRAcquisitionType": "2D",
  "MagneticFieldStrength": 3,
  "Manufacturer": "Siemens",
  "ManufacturersModelName": "Prisma",
  "MatrixCoilMode": "GRAPPA",
  "Modality": "MR",
  "NonlinearGradientCorrection": false,
  "ParallelReductionFactorInPlane": 2,
  "PartialFourier": 1,
  "PatientPosition": "HFS",
  "PercentPhaseFOV": 100,
  "PercentSampling": 100,
  "PhaseEncodingDirection": "j-",
  "PhaseEncodingSteps": 70,
  "PhaseResolution": 1,
  "PixelBandwidth": 2165,
  "ProcedureStepDescription": "Head^PI:Others",
  "ProtocolName": "BOLD_ep2d_3x3x3_response1",
  "PulseSequenceDetails": "%SiemensSeq%\\ep2d_pace",
  "ReceiveCoilActiveElements": "HC1-7",
  "ReceiveCoilName": "HeadNeck_64",
  "ReconMatrixPE": 70,
  "RefLinesPE": 24,
  "RepetitionTime": 2,
  "SAR": 0.161503,
  "ScanOptions": "FS",
  "ScanningSequence": "EP",
  "SequenceName": "*epfid2d1_70",
  "SequenceVariant": "SK",
  "SeriesDescription": "BOLD_ep2d_3x3x3_response1",
  "SeriesNumber": 6,
  "ShimSetting": [5064, 3713, 4439, 437, -83, -118, -94, 26],
  "SliceThickness": 3,
  "SliceTiming": [0.99, 0, 1.0375, 0.0475, 1.085, 0.095, 1.13, 0.14, 1.1775, 0.1875, 1.225, 0.235, 1.2725, 0.2825, 1.32, 0.33, 1.3675, 0.3775, 1.415, 0.425, 1.46, 0.47, 1.5075, 0.5175, 1.555, 0.565, 1.6025, 0.6125, 1.65, 0.66, 1.6975, 0.7075, 1.745, 0.755, 1.79, 0.8, 1.8375, 0.8475, 1.885, 0.895, 1.9325, 0.9425],
  "SoftwareVersions": "syngo MR E11",
  "SpacingBetweenSlices": 3,
  "StationName": "AWP66061",
  "TaskName": "response",
  "TotalReadoutTime": 0.018975,
  "TxRefAmp": 251.526,
  "dcmmeta_affine": [
    [-2.9846506118774414, -0.0036464924924075603, 0.30306345224380493, 101.62110137939453],
    [-0.06274880468845367, 2.94222354888916, -0.5825660228729248, -91.30951690673828],
    [0.2965186834335327, 0.5859243273735046, 2.92724609375, -84.81822967529297],
    [0.0, 0.0, 0.0, 1.0]
],
  "dcmmeta_reorient_transform": [
    [0.0, -1.0, 0.0, 69.0],
    [1.0, 0.0, 0.0, 0.0],
    [0.0, 0.0, -1.0, 41.0],
    [0.0, 0.0, 0.0, 1.0]
],
  "dcmmeta_shape": [70, 70, 42, 341],
  "dcmmeta_slice_dim": 2,
  "dcmmeta_version": 0.6,
  "global": {
    "const": {
      "AcquisitionMatrix": [70, 0, 0, 70],
      "AngioFlag": "N",
      "BitsAllocated": 16,
      "BitsStored": 12,
      "BodyPartExamined": "HEAD",
      "Columns": 490,
      "EchoNumbers": 1,
      "EchoTime": 22.0,
      "EchoTrainLength": 35,
      "FlipAngle": 90.0,
      "HighBit": 11,
      "ImageOrientationPatient": [0.99488353610123, 0.02091626872634, 0.09883956342111, -0.0012154974851, 0.98074118259766, -0.1953081035769],
      "ImagePositionPatient": [-739.80596169099, -718.86289720959, 136.40282061802],
      "ImageType": [
        "ORIGINAL",
        "PRIMARY",
        "M",
        "ND",
        "NORM",
        "MOSAIC"
],
      "ImagedNucleus": "1H",
      "ImagingFrequency": 123.254547,
      "InPlanePhaseEncodingDirection": "COL",
      "MRAcquisitionType": "2D",
      "MagneticFieldStrength": 3.0,
      "Manufacturer": "SIEMENS",
      "ManufacturerModelName": "Prisma",
      "Modality": "MR",
      "NumberOfAverages": 1.0,
      "NumberOfPhaseEncodingSteps": 70,
      "PercentPhaseFieldOfView": 100.0,
      "PercentSampling": 100.0,
      "PerformedProcedureStepStartTime": "111218.990000",
      "PhotometricInterpretation": "MONOCHROME2",
      "PixelBandwidth": 2165.0,
      "PixelRepresentation": 0,
      "PixelSpacing": [3.0, 3.0],
      "ProtocolName": "BOLD_ep2d_3x3x3_response1",
      "RepetitionTime": 2000.0,
      "Rows": 490,
      "SAR": 0.16150261285151,
      "SamplesPerPixel": 1,
      "ScanOptions": "FS",
      "ScanningSequence": "EP",
      "SequenceName": "*epfid2d1_70",
      "SequenceVariant": "SK",
      "SeriesDescription": "BOLD_ep2d_3x3x3_response1",
      "SeriesNumber": 6,
      "SeriesTime": "113140.074000",
      "SliceLocation": 68.2358836699,
      "SliceThickness": 3.0,
      "SmallestImagePixelValue": 0,
      "SoftwareVersions": "syngo MR E11",
      "SpacingBetweenSlices": 3.0000000440934,
      "SpecificCharacterSet": "ISO_IR 100",
      "StudyID": "1",
      "StudyTime": "111218.927000",
      "TransmitCoilName": "Body",
      "VariableFlipAngleFlag": "N",
      "WindowCenterWidthExplanation": "Algo1",
      "dBdt": 0.0},
    "slices": {}
  },
  "time": {
    "samples": {
      "AcquisitionNumber": [1, 2, 3, 4, 5, 6, 7, 8, 9, 10, 11, 12, 13, 14, 15, 16, 17, 18, 19, 20, 21, 22, 23, 24, 25, 26, 27, 28, 29, 30, 31, 32, 33, 34, 35, 36, 37, 38, 39, 40, 41, 42, 43, 44, 45, 46, 47, 48, 49, 50, 51, 52, 53, 54, 55, 56, 57, 58, 59, 60, 61, 62, 63, 64, 65, 66, 67, 68, 69, 70, 71, 72, 73, 74, 75, 76, 77, 78, 79, 80, 81, 82, 83, 84, 85, 86, 87, 88, 89, 90, 91, 92, 93, 94, 95, 96, 97, 98, 99, 100, 101, 102, 103, 104, 105, 106, 107, 108, 109, 110, 111, 112, 113, 114, 115, 116, 117, 118, 119, 120, 121, 122, 123, 124, 125, 126, 127, 128, 129, 130, 131, 132, 133, 134, 135, 136, 137, 138, 139, 140, 141, 142, 143, 144, 145, 146, 147, 148, 149, 150, 151, 152, 153, 154, 155, 156, 157, 158, 159, 160, 161, 162, 163, 164, 165, 166, 167, 168, 169, 170, 171, 172, 173, 174, 175, 176, 177, 178, 179, 180, 181, 182, 183, 184, 185, 186, 187, 188, 189, 190, 191, 192, 193, 194, 195, 196, 197, 198, 199, 200, 201, 202, 203, 204, 205, 206, 207, 208, 209, 210, 211, 212, 213, 214, 215, 216, 217, 218, 219, 220, 221, 222, 223, 224, 225, 226, 227, 228, 229, 230, 231, 232, 233, 234, 235, 236, 237, 238, 239, 240, 241, 242, 243, 244, 245, 246, 247, 248, 249, 250, 251, 252, 253, 254, 255, 256, 257, 258, 259, 260, 261, 262, 263, 264, 265, 266, 267, 268, 269, 270, 271, 272, 273, 274, 275, 276, 277, 278, 279, 280, 281, 282, 283, 284, 285, 286, 287, 288, 289, 290, 291, 292, 293, 294, 295, 296, 297, 298, 299, 300, 301, 302, 303, 304, 305, 306, 307, 308, 309, 310, 311, 312, 313, 314, 315, 316, 317, 318, 319, 320, 321, 322, 323, 324, 325, 326, 327, 328, 329, 330, 331, 332, 333, 334, 335, 336, 337, 338, 339, 340, 341],
      "AcquisitionTime": ["113040.835000", "113042.835000", "113044.835000", "113046.835000", "113048.835000", "113050.835000", "113052.835000", "113054.835000", "113056.835000", "113058.835000", "113100.835000", "113102.835000", "113104.835000", "113106.835000", "113108.835000", "113110.835000", "113112.835000", "113114.835000", "113116.835000", "113118.835000", "113120.835000", "113122.835000", "113124.835000", "113126.835000", "113128.835000", "113130.835000", "113132.835000", "113134.835000", "113136.835000", "113138.835000", "113140.835000", "113142.835000", "113144.835000", "113146.835000", "113148.835000", "113150.835000", "113152.835000", "113154.835000", "113156.835000", "113158.835000", "113200.835000", "113202.835000", "113204.835000", "113206.835000", "113208.835000", "113210.835000", "113212.835000", "113214.835000", "113216.835000", "113218.835000", "113220.835000", "113222.835000", "113224.835000", "113226.835000", "113228.835000", "113230.835000", "113232.835000", "113234.835000", "113236.835000", "113238.835000", "113240.835000", "113242.835000", "113244.835000", "113246.835000", "113248.835000", "113250.835000", "113252.835000", "113254.835000", "113256.835000", "113258.835000", "113300.835000", "113302.835000", "113304.835000", "113306.835000", "113308.835000", "113310.835000", "113312.835000", "113314.835000", "113316.835000", "113318.835000", "113320.835000", "113322.835000", "113324.835000", "113326.835000", "113328.835000", "113330.835000", "113332.835000", "113334.835000", "113336.835000", "113338.835000", "113340.835000", "113342.835000", "113344.835000", "113346.835000", "113348.835000", "113350.835000", "113352.835000", "113354.835000", "113356.835000", "113358.835000", "113400.835000", "113402.835000", "113404.835000", "113406.835000", "113408.835000", "113410.835000", "113412.835000", "113414.835000", "113416.835000", "113418.835000", "113420.835000", "113422.835000", "113424.835000", "113426.835000", "113428.835000", "113430.835000", "113432.835000", "113434.835000", "113436.835000", "113438.835000", "113440.835000", "113442.835000", "113444.835000", "113446.835000", "113448.835000", "113450.835000", "113452.835000", "113454.835000", "113456.835000", "113458.835000", "113500.835000", "113502.835000", "113504.835000", "113506.835000", "113508.835000", "113510.835000", "113512.835000", "113514.835000", "113516.835000", "113518.835000", "113520.835000", "113522.835000", "113524.835000", "113526.835000", "113528.835000", "113530.835000", "113532.835000", "113534.835000", "113536.835000", "113538.835000", "113540.835000", "113542.835000", "113544.835000", "113546.835000", "113548.835000", "113550.835000", "113552.835000", "113554.835000", "113556.835000", "113558.835000", "113600.835000", "113602.835000", "113604.835000", "113606.835000", "113608.835000", "113610.835000", "113612.835000", "113614.835000", "113616.835000", "113618.835000", "113620.835000", "113622.835000", "113624.835000", "113626.835000", "113628.835000", "113630.835000", "113632.835000", "113634.835000", "113636.835000", "113638.835000", "113640.835000", "113642.835000", "113644.835000", "113646.835000", "113648.835000", "113650.835000", "113652.835000", "113654.835000", "113656.835000", "113658.835000", "113700.835000", "113702.835000", "113704.835000", "113706.835000", "113708.835000", "113710.835000", "113712.835000", "113714.835000", "113716.835000", "113718.835000", "113720.835000", "113722.835000", "113724.835000", "113726.835000", "113728.835000", "113730.835000", "113732.835000", "113734.835000", "113736.835000", "113738.835000", "113740.835000", "113742.835000", "113744.835000", "113746.835000", "113748.835000", "113750.835000", "113752.835000", "113754.835000", "113756.835000", "113758.835000", "113800.835000", "113802.835000", "113804.835000", "113806.835000", "113808.835000", "113810.835000", "113812.835000", "113814.835000", "113816.835000", "113818.835000", "113820.835000", "113822.835000", "113824.835000", "113826.835000", "113828.835000", "113830.835000", "113832.835000", "113834.835000", "113836.835000", "113838.835000", "113840.835000", "113842.835000", "113844.835000", "113846.835000", "113848.835000", "113850.835000", "113852.835000", "113854.835000", "113856.835000", "113858.835000", "113900.835000", "113902.835000", "113904.835000", "113906.835000", "113908.835000", "113910.835000", "113912.835000", "113914.835000", "113916.835000", "113918.835000", "113920.835000", "113922.835000", "113924.835000", "113926.835000", "113928.835000", "113930.835000", "113932.835000", "113934.835000", "113936.835000", "113938.835000", "113940.835000", "113942.835000", "113944.835000", "113946.835000", "113948.835000", "113950.835000", "113952.835000", "113954.835000", "113956.835000", "113958.835000", "114000.835000", "114002.835000", "114004.835000", "114006.835000", "114008.835000", "114010.835000", "114012.835000", "114014.835000", "114016.835000", "114018.835000", "114020.835000", "114022.835000", "114024.835000", "114026.835000", "114028.835000", "114030.835000", "114032.835000", "114034.835000", "114036.835000", "114038.835000", "114040.835000", "114042.835000", "114044.835000", "114046.835000", "114048.835000", "114050.835000", "114052.835000", "114054.835000", "114056.835000", "114058.835000", "114100.835000", "114102.835000", "114104.835000", "114106.835000", "114108.835000", "114110.835000", "114112.835000", "114114.835000", "114116.835000", "114118.835000", "114120.835000", "114122.835000", "114124.835000", "114126.835000", "114128.835000", "114130.835000", "114132.835000", "114134.835000", "114136.835000", "114138.835000", "114140.835000", "114142.835000", "114144.835000", "114146.835000", "114148.835000", "114150.835000", "114152.835000", "114154.835000", "114156.835000", "114158.835000", "114200.835000"],
      "ContentTime": ["113140.077000", "113140.081000", "113140.084000", "113140.087000", "113140.090000", "113140.092000", "113140.102000", "113140.104000", "113140.107000", "113140.110000", "113140.113000", "113140.116000", "113140.118000", "113140.121000", "113140.124000", "113140.127000", "113140.130000", "113140.133000", "113140.136000", "113140.139000", "113140.142000", "113140.145000", "113140.148000", "113140.151000", "113140.153000", "113140.156000", "113140.159000", "113140.162000", "113140.165000", "113220.073000", "113220.076000", "113220.079000", "113220.082000", "113220.084000", "113220.087000", "113220.090000", "113220.093000", "113220.095000", "113220.098000", "113220.101000", "113220.104000", "113220.107000", "113220.109000", "113220.112000", "113220.115000", "113220.118000", "113220.121000", "113220.124000", "113220.127000", "113300.073000", "113300.076000", "113300.079000", "113300.081000", "113300.084000", "113300.087000", "113300.090000", "113300.093000", "113300.095000", "113300.098000", "113300.101000", "113300.104000", "113300.107000", "113300.109000", "113300.112000", "113300.115000", "113300.118000", "113300.121000", "113300.124000", "113300.127000", "113340.073000", "113340.076000", "113340.079000", "113340.081000", "113340.084000", "113340.087000", "113340.090000", "113340.093000", "113340.095000", "113340.098000", "113340.101000", "113340.104000", "113340.106000", "113340.109000", "113340.112000", "113340.122000", "113340.126000", "113340.129000", "113340.132000", "113340.134000", "113420.073000", "113420.076000", "113420.079000", "113420.081000", "113420.084000", "113420.087000", "113420.090000", "113420.093000", "113420.095000", "113420.098000", "113420.101000", "113420.104000", "113420.107000", "113420.110000", "113420.112000", "113420.115000", "113420.118000", "113420.122000", "113420.125000", "113420.127000", "113500.073000", "113500.076000", "113500.079000", "113500.081000", "113500.084000", "113500.087000", "113500.090000", "113500.093000", "113500.095000", "113500.098000", "113500.101000", "113500.104000", "113500.107000", "113500.109000", "113500.119000", "113500.122000", "113500.124000", "113500.127000", "113500.130000", "113500.134000", "113540.073000", "113540.076000", "113540.079000", "113540.081000", "113540.084000", "113540.087000", "113540.090000", "113540.092000", "113540.095000", "113540.098000", "113540.101000", "113540.104000", "113540.106000", "113540.109000", "113540.112000", "113540.115000", "113540.118000", "113540.121000", "113540.124000", "113540.127000", "113620.073000", "113620.076000", "113620.079000", "113620.081000", "113620.084000", "113620.087000", "113620.090000", "113620.093000", "113620.095000", "113620.098000", "113620.101000", "113620.103000", "113620.106000", "113620.109000", "113620.112000", "113620.115000", "113620.119000", "113620.121000", "113620.124000", "113620.127000", "113700.073000", "113700.076000", "113700.078000", "113700.081000", "113700.084000", "113700.087000", "113700.090000", "113700.093000", "113700.096000", "113700.099000", "113700.102000", "113700.104000", "113700.107000", "113700.110000", "113700.114000", "113700.117000", "113700.120000", "113700.123000", "113700.136000", "113700.139000", "113720.073000", "113720.076000", "113720.079000", "113720.081000", "113720.084000", "113720.087000", "113720.090000", "113720.093000", "113720.096000", "113720.099000", "113800.073000", "113800.076000", "113800.079000", "113800.081000", "113800.085000", "113800.088000", "113800.091000", "113800.094000", "113800.097000", "113800.099000", "113800.102000", "113800.105000", "113800.108000", "113800.111000", "113800.116000", "113800.119000", "113800.122000", "113800.124000", "113800.128000", "113800.131000", "113840.073000", "113840.076000", "113840.079000", "113840.081000", "113840.084000", "113840.087000", "113840.090000", "113840.093000", "113840.095000", "113840.098000", "113840.101000", "113840.104000", "113840.106000", "113840.109000", "113840.113000", "113840.116000", "113840.118000", "113840.121000", "113840.124000", "113840.128000", "113920.073000", "113920.076000", "113920.078000", "113920.081000", "113920.084000", "113920.087000", "113920.089000", "113920.092000", "113920.095000", "113920.098000", "113920.101000", "113920.103000", "113920.106000", "113920.109000", "113920.112000", "113920.115000", "113920.118000", "113920.121000", "113920.124000", "113920.127000", "114000.073000", "114000.076000", "114000.078000", "114000.081000", "114000.084000", "114000.087000", "114000.090000", "114000.093000", "114000.095000", "114000.098000", "114000.101000", "114000.104000", "114000.106000", "114000.121000", "114000.124000", "114000.127000", "114000.130000", "114000.133000", "114000.135000", "114000.138000", "114040.073000", "114040.076000", "114040.078000", "114040.081000", "114040.084000", "114040.087000", "114040.090000", "114040.092000", "114040.095000", "114040.098000", "114040.101000", "114040.104000", "114040.107000", "114040.110000", "114040.113000", "114040.116000", "114040.118000", "114040.121000", "114040.124000", "114040.127000", "114120.073000", "114120.076000", "114120.078000", "114120.081000", "114120.084000", "114120.087000", "114120.090000", "114120.093000", "114120.095000", "114120.098000", "114120.101000", "114120.104000", "114120.108000", "114120.111000", "114120.114000", "114120.116000", "114120.119000", "114120.122000", "114120.125000", "114120.128000", "114200.073000", "114200.076000", "114200.079000", "114200.081000", "114200.084000", "114200.087000", "114200.090000", "114200.093000", "114200.095000", "114200.098000", "114200.101000", "114200.104000", "114200.108000", "114200.110000", "114200.113000", "114200.116000", "114200.119000", "114200.122000", "114200.125000", "114200.128000", "114202.142000", "114202.145000"],
      "DataSetTrailingPadding": [
        "\u0000\u0000\u0000\u0000\u0000\u0000\u0000\u0000\u0000\u0000\u0000\u0000\u0000\u0000\u0000\u0000\u0000\u0000\u0000\u0000\u0000\u0000\u0000\u0000\u0000\u0000\u0000\u0000\u0000\u0000\u0000\u0000\u0000\u0000\u0000\u0000\u0000\u0000\u0000\u0000\u0000\u0000\u0000\u0000\u0000\u0000\u0000\u0000\u0000\u0000\u0000\u0000\u0000\u0000\u0000\u0000\u0000\u0000\u0000\u0000\u0000\u0000\u0000\u0000\u0000\u0000\u0000\u0000\u0000\u0000\u0000\u0000\u0000\u0000\u0000\u0000\u0000\u0000\u0000\u0000\u0000\u0000\u0000\u0000\u0000\u0000\u0000\u0000\u0000\u0000\u0000\u0000\u0000\u0000\u0000\u0000\u0000\u0000\u0000\u0000\u0000\u0000\u0000\u0000\u0000\u0000\u0000\u0000\u0000\u0000\u0000\u0000\u0000\u0000\u0000\u0000\u0000\u0000\u0000\u0000\u0000\u0000\u0000\u0000\u0000\u0000\u0000\u0000\u0000\u0000\u0000\u0000\u0000\u0000\u0000\u0000",
        "\u0000\u0000\u0000\u0000\u0000\u0000\u0000\u0000\u0000\u0000\u0000\u0000\u0000\u0000\u0000\u0000\u0000\u0000\u0000\u0000\u0000\u0000\u0000\u0000\u0000\u0000\u0000\u0000\u0000\u0000\u0000\u0000\u0000\u0000\u0000\u0000\u0000\u0000\u0000\u0000\u0000\u0000\u0000\u0000\u0000\u0000\u0000\u0000\u0000\u0000\u0000\u0000\u0000\u0000\u0000\u0000\u0000\u0000\u0000\u0000\u0000\u0000\u0000\u0000\u0000\u0000\u0000\u0000\u0000\u0000\u0000\u0000\u0000\u0000\u0000\u0000\u0000\u0000\u0000\u0000\u0000\u0000\u0000\u0000\u0000\u0000\u0000\u0000\u0000\u0000\u0000\u0000\u0000\u0000\u0000\u0000\u0000\u0000\u0000\u0000\u0000\u0000\u0000\u0000\u0000\u0000\u0000\u0000\u0000\u0000\u0000\u0000\u0000\u0000\u0000\u0000\u0000\u0000\u0000\u0000\u0000\u0000\u0000\u0000\u0000\u0000\u0000\u0000\u0000\u0000\u0000\u0000\u0000\u0000\u0000\u0000\u0000\u0000",
        "\u0000\u0000\u0000\u0000\u0000\u0000\u0000\u0000\u0000\u0000\u0000\u0000\u0000\u0000\u0000\u0000\u0000\u0000\u0000\u0000\u0000\u0000\u0000\u0000\u0000\u0000\u0000\u0000\u0000\u0000\u0000\u0000\u0000\u0000\u0000\u0000\u0000\u0000\u0000\u0000\u0000\u0000\u0000\u0000\u0000\u0000\u0000\u0000\u0000\u0000\u0000\u0000\u0000\u0000\u0000\u0000\u0000\u0000\u0000\u0000\u0000\u0000\u0000\u0000\u0000\u0000\u0000\u0000\u0000\u0000\u0000\u0000\u0000\u0000\u0000\u0000\u0000\u0000\u0000\u0000\u0000\u0000\u0000\u0000\u0000\u0000\u0000\u0000\u0000\u0000\u0000\u0000\u0000\u0000\u0000\u0000\u0000\u0000\u0000\u0000\u0000\u0000\u0000\u0000\u0000\u0000\u0000\u0000\u0000\u0000\u0000\u0000\u0000\u0000\u0000\u0000\u0000\u0000\u0000\u0000\u0000\u0000\u0000\u0000\u0000\u0000\u0000\u0000\u0000\u0000\u0000\u0000\u0000\u0000\u0000\u0000\u0000\u0000",
        "\u0000\u0000\u0000\u0000\u0000\u0000\u0000\u0000\u0000\u0000\u0000\u0000\u0000\u0000\u0000\u0000\u0000\u0000\u0000\u0000\u0000\u0000\u0000\u0000\u0000\u0000\u0000\u0000\u0000\u0000\u0000\u0000\u0000\u0000\u0000\u0000\u0000\u0000\u0000\u0000\u0000\u0000\u0000\u0000\u0000\u0000\u0000\u0000\u0000\u0000\u0000\u0000\u0000\u0000\u0000\u0000\u0000\u0000\u0000\u0000\u0000\u0000\u0000\u0000\u0000\u0000\u0000\u0000\u0000\u0000\u0000\u0000\u0000\u0000\u0000\u0000\u0000\u0000\u0000\u0000\u0000\u0000\u0000\u0000\u0000\u0000\u0000\u0000\u0000\u0000\u0000\u0000\u0000\u0000\u0000\u0000\u0000\u0000\u0000\u0000\u0000\u0000\u0000\u0000\u0000\u0000\u0000\u0000\u0000\u0000\u0000\u0000\u0000\u0000\u0000\u0000\u0000\u0000\u0000\u0000\u0000\u0000\u0000\u0000\u0000\u0000\u0000\u0000\u0000\u0000\u0000\u0000\u0000\u0000\u0000\u0000\u0000\u0000",
        "\u0000\u0000\u0000\u0000\u0000\u0000\u0000\u0000\u0000\u0000\u0000\u0000\u0000\u0000\u0000\u0000\u0000\u0000\u0000\u0000\u0000\u0000\u0000\u0000\u0000\u0000\u0000\u0000\u0000\u0000\u0000\u0000\u0000\u0000\u0000\u0000\u0000\u0000\u0000\u0000\u0000\u0000\u0000\u0000\u0000\u0000\u0000\u0000\u0000\u0000\u0000\u0000\u0000\u0000\u0000\u0000\u0000\u0000\u0000\u0000\u0000\u0000\u0000\u0000\u0000\u0000\u0000\u0000\u0000\u0000\u0000\u0000\u0000\u0000\u0000\u0000\u0000\u0000\u0000\u0000\u0000\u0000\u0000\u0000\u0000\u0000\u0000\u0000\u0000\u0000\u0000\u0000\u0000\u0000\u0000\u0000\u0000\u0000\u0000\u0000\u0000\u0000\u0000\u0000\u0000\u0000\u0000\u0000\u0000\u0000\u0000\u0000\u0000\u0000\u0000\u0000\u0000\u0000\u0000\u0000\u0000\u0000\u0000\u0000\u0000\u0000\u0000\u0000\u0000\u0000\u0000\u0000\u0000\u0000\u0000\u0000",
        "\u0000\u0000\u0000\u0000\u0000\u0000\u0000\u0000\u0000\u0000\u0000\u0000\u0000\u0000\u0000\u0000\u0000\u0000\u0000\u0000\u0000\u0000\u0000\u0000\u0000\u0000\u0000\u0000\u0000\u0000\u0000\u0000\u0000\u0000\u0000\u0000\u0000\u0000\u0000\u0000\u0000\u0000\u0000\u0000\u0000\u0000\u0000\u0000\u0000\u0000\u0000\u0000\u0000\u0000\u0000\u0000\u0000\u0000\u0000\u0000\u0000\u0000\u0000\u0000\u0000\u0000\u0000\u0000\u0000\u0000\u0000\u0000\u0000\u0000\u0000\u0000\u0000\u0000\u0000\u0000\u0000\u0000\u0000\u0000\u0000\u0000\u0000\u0000\u0000\u0000\u0000\u0000\u0000\u0000\u0000\u0000\u0000\u0000\u0000\u0000\u0000\u0000\u0000\u0000\u0000\u0000\u0000\u0000\u0000\u0000\u0000\u0000\u0000\u0000\u0000\u0000\u0000\u0000\u0000\u0000\u0000\u0000\u0000\u0000\u0000\u0000\u0000\u0000\u0000\u0000\u0000\u0000\u0000\u0000\u0000\u0000",
        "\u0000\u0000\u0000\u0000\u0000\u0000\u0000\u0000\u0000\u0000\u0000\u0000\u0000\u0000\u0000\u0000\u0000\u0000\u0000\u0000\u0000\u0000\u0000\u0000\u0000\u0000\u0000\u0000\u0000\u0000\u0000\u0000\u0000\u0000\u0000\u0000\u0000\u0000\u0000\u0000\u0000\u0000\u0000\u0000\u0000\u0000\u0000\u0000\u0000\u0000\u0000\u0000\u0000\u0000\u0000\u0000\u0000\u0000\u0000\u0000\u0000\u0000\u0000\u0000\u0000\u0000\u0000\u0000\u0000\u0000\u0000\u0000\u0000\u0000\u0000\u0000\u0000\u0000\u0000\u0000\u0000\u0000\u0000\u0000\u0000\u0000\u0000\u0000\u0000\u0000\u0000\u0000\u0000\u0000\u0000\u0000\u0000\u0000\u0000\u0000\u0000\u0000\u0000\u0000\u0000\u0000\u0000\u0000\u0000\u0000\u0000\u0000\u0000\u0000\u0000\u0000\u0000\u0000\u0000\u0000\u0000\u0000\u0000\u0000\u0000\u0000\u0000\u0000\u0000\u0000\u0000\u0000\u0000\u0000\u0000\u0000",
        "\u0000\u0000\u0000\u0000\u0000\u0000\u0000\u0000\u0000\u0000\u0000\u0000\u0000\u0000\u0000\u0000\u0000\u0000\u0000\u0000\u0000\u0000\u0000\u0000\u0000\u0000\u0000\u0000\u0000\u0000\u0000\u0000\u0000\u0000\u0000\u0000\u0000\u0000\u0000\u0000\u0000\u0000\u0000\u0000\u0000\u0000\u0000\u0000\u0000\u0000\u0000\u0000\u0000\u0000\u0000\u0000\u0000\u0000\u0000\u0000\u0000\u0000\u0000\u0000\u0000\u0000\u0000\u0000\u0000\u0000\u0000\u0000\u0000\u0000\u0000\u0000\u0000\u0000\u0000\u0000\u0000\u0000\u0000\u0000\u0000\u0000\u0000\u0000\u0000\u0000\u0000\u0000\u0000\u0000\u0000\u0000\u0000\u0000\u0000\u0000\u0000\u0000\u0000\u0000\u0000\u0000\u0000\u0000\u0000\u0000\u0000\u0000\u0000\u0000\u0000\u0000\u0000\u0000\u0000\u0000\u0000\u0000\u0000\u0000\u0000\u0000\u0000\u0000\u0000\u0000\u0000\u0000\u0000\u0000\u0000\u0000",
        "\u0000\u0000\u0000\u0000\u0000\u0000\u0000\u0000\u0000\u0000\u0000\u0000\u0000\u0000\u0000\u0000\u0000\u0000\u0000\u0000\u0000\u0000\u0000\u0000\u0000\u0000\u0000\u0000\u0000\u0000\u0000\u0000\u0000\u0000\u0000\u0000\u0000\u0000\u0000\u0000\u0000\u0000\u0000\u0000\u0000\u0000\u0000\u0000\u0000\u0000\u0000\u0000\u0000\u0000\u0000\u0000\u0000\u0000\u0000\u0000\u0000\u0000\u0000\u0000\u0000\u0000\u0000\u0000\u0000\u0000\u0000\u0000\u0000\u0000\u0000\u0000\u0000\u0000\u0000\u0000\u0000\u0000\u0000\u0000\u0000\u0000\u0000\u0000\u0000\u0000\u0000\u0000\u0000\u0000\u0000\u0000\u0000\u0000\u0000\u0000\u0000\u0000\u0000\u0000\u0000\u0000\u0000\u0000\u0000\u0000\u0000\u0000\u0000\u0000\u0000\u0000\u0000\u0000\u0000\u0000\u0000\u0000\u0000\u0000\u0000\u0000\u0000\u0000\u0000\u0000\u0000\u0000\u0000\u0000\u0000\u0000",
        "\u0000\u0000\u0000\u0000\u0000\u0000\u0000\u0000\u0000\u0000\u0000\u0000\u0000\u0000\u0000\u0000\u0000\u0000\u0000\u0000\u0000\u0000\u0000\u0000\u0000\u0000\u0000\u0000\u0000\u0000\u0000\u0000\u0000\u0000\u0000\u0000\u0000\u0000\u0000\u0000\u0000\u0000\u0000\u0000\u0000\u0000\u0000\u0000\u0000\u0000\u0000\u0000\u0000\u0000\u0000\u0000\u0000\u0000\u0000\u0000\u0000\u0000\u0000\u0000\u0000\u0000\u0000\u0000\u0000\u0000\u0000\u0000\u0000\u0000\u0000\u0000\u0000\u0000\u0000\u0000\u0000\u0000\u0000\u0000\u0000\u0000\u0000\u0000\u0000\u0000\u0000\u0000\u0000\u0000\u0000\u0000\u0000\u0000\u0000\u0000\u0000\u0000\u0000\u0000\u0000\u0000\u0000\u0000\u0000\u0000\u0000\u0000\u0000\u0000\u0000\u0000\u0000\u0000\u0000\u0000\u0000\u0000\u0000\u0000\u0000\u0000\u0000\u0000\u0000\u0000\u0000\u0000\u0000\u0000\u0000\u0000",
        "\u0000\u0000\u0000\u0000\u0000\u0000\u0000\u0000\u0000\u0000\u0000\u0000\u0000\u0000\u0000\u0000\u0000\u0000\u0000\u0000\u0000\u0000\u0000\u0000\u0000\u0000\u0000\u0000\u0000\u0000\u0000\u0000\u0000\u0000\u0000\u0000\u0000\u0000\u0000\u0000\u0000\u0000\u0000\u0000\u0000\u0000\u0000\u0000\u0000\u0000\u0000\u0000\u0000\u0000\u0000\u0000\u0000\u0000\u0000\u0000\u0000\u0000\u0000\u0000\u0000\u0000\u0000\u0000\u0000\u0000\u0000\u0000\u0000\u0000\u0000\u0000\u0000\u0000\u0000\u0000\u0000\u0000\u0000\u0000\u0000\u0000\u0000\u0000\u0000\u0000\u0000\u0000\u0000\u0000\u0000\u0000\u0000\u0000\u0000\u0000\u0000\u0000\u0000\u0000\u0000\u0000\u0000\u0000\u0000\u0000\u0000\u0000\u0000\u0000\u0000\u0000\u0000\u0000\u0000\u0000\u0000\u0000\u0000\u0000\u0000\u0000\u0000\u0000\u0000\u0000\u0000\u0000\u0000\u0000\u0000\u0000",
        "\u0000\u0000\u0000\u0000\u0000\u0000\u0000\u0000\u0000\u0000\u0000\u0000\u0000\u0000\u0000\u0000\u0000\u0000\u0000\u0000\u0000\u0000\u0000\u0000\u0000\u0000\u0000\u0000\u0000\u0000\u0000\u0000\u0000\u0000\u0000\u0000\u0000\u0000\u0000\u0000\u0000\u0000\u0000\u0000\u0000\u0000\u0000\u0000\u0000\u0000\u0000\u0000\u0000\u0000\u0000\u0000\u0000\u0000\u0000\u0000\u0000\u0000\u0000\u0000\u0000\u0000\u0000\u0000\u0000\u0000\u0000\u0000\u0000\u0000\u0000\u0000\u0000\u0000\u0000\u0000\u0000\u0000\u0000\u0000\u0000\u0000\u0000\u0000\u0000\u0000\u0000\u0000\u0000\u0000\u0000\u0000\u0000\u0000\u0000\u0000\u0000\u0000\u0000\u0000\u0000\u0000\u0000\u0000\u0000\u0000\u0000\u0000\u0000\u0000\u0000\u0000\u0000\u0000\u0000\u0000\u0000\u0000\u0000\u0000\u0000\u0000\u0000\u0000\u0000\u0000\u0000\u0000\u0000\u0000\u0000\u0000",
        "\u0000\u0000\u0000\u0000\u0000\u0000\u0000\u0000\u0000\u0000\u0000\u0000\u0000\u0000\u0000\u0000\u0000\u0000\u0000\u0000\u0000\u0000\u0000\u0000\u0000\u0000\u0000\u0000\u0000\u0000\u0000\u0000\u0000\u0000\u0000\u0000\u0000\u0000\u0000\u0000\u0000\u0000\u0000\u0000\u0000\u0000\u0000\u0000\u0000\u0000\u0000\u0000\u0000\u0000\u0000\u0000\u0000\u0000\u0000\u0000\u0000\u0000\u0000\u0000\u0000\u0000\u0000\u0000\u0000\u0000\u0000\u0000\u0000\u0000\u0000\u0000\u0000\u0000\u0000\u0000\u0000\u0000\u0000\u0000\u0000\u0000\u0000\u0000\u0000\u0000\u0000\u0000\u0000\u0000\u0000\u0000\u0000\u0000\u0000\u0000\u0000\u0000\u0000\u0000\u0000\u0000\u0000\u0000\u0000\u0000\u0000\u0000\u0000\u0000\u0000\u0000\u0000\u0000\u0000\u0000\u0000\u0000\u0000\u0000\u0000\u0000\u0000\u0000\u0000\u0000\u0000\u0000\u0000\u0000\u0000\u0000",
