{
  "AcquisitionMatrixPE": 70,
  "AcquisitionNumber": 1,
  "AcquisitionTime": "16:21:2.027500",
  "BandwidthPerPixelPhaseEncode": 51.948,
  "BaseResolution": 70,
  "BodyPartExamined": "HEAD",
  "CoilCombinationMethod": "Sum of Squares",
  "ConsistencyInfo": "N4_VE11C_LATEST_20160120",
  "ConversionSoftware": "dcm2niix",
  "ConversionSoftwareVersion": "v1.0.20220720",
  "DerivedVendorReportedEchoSpacing": 0.000550001,
  "DeviceSerialNumber": "66061",
  "DwellTime": 3.3e-06,
  "EchoTime": 0.022,
  "EchoTrainLength": 35,
  "EffectiveEchoSpacing": 0.000275,
  "FlipAngle": 90,
  "HeudiconvVersion": "1.1.1",
  "ImageOrientationPatientDICOM": [0.999668, 0.00505714, 0.0252579, -0.00122133, 0.988742, -0.149628],
  "ImageOrientationText": "Tra>Cor(-8.6)>Sag(1.5)",
  "ImageType": [
    "ORIGINAL",
    "PRIMARY",
    "M",
    "ND",
    "NORM",
    "MOSAIC"
],
  "ImagingFrequency": 123.255,
  "InPlanePhaseEncodingDirectionDICOM": "COL",
  "InstitutionAddress": "Street StreetNo,City/1c4204/,District,KR,ZIP",
  "InstitutionName": "SKKU",
  "InstitutionalDepartmentName": "Department",
  "MRAcquisitionType": "2D",
  "MagneticFieldStrength": 3,
  "Manufacturer": "Siemens",
  "ManufacturersModelName": "Prisma",
  "MatrixCoilMode": "GRAPPA",
  "Modality": "MR",
  "NonlinearGradientCorrection": false,
  "ParallelReductionFactorInPlane": 2,
  "PartialFourier": 1,
  "PatientPosition": "HFS",
  "PercentPhaseFOV": 100,
  "PercentSampling": 100,
  "PhaseEncodingDirection": "j-",
  "PhaseEncodingSteps": 70,
  "PhaseResolution": 1,
  "PixelBandwidth": 2165,
  "ProcedureStepDescription": "Head^PI:Others",
  "ProtocolName": "BOLD_ep2d_3x3x3_response1",
  "PulseSequenceDetails": "%SiemensSeq%\\ep2d_pace",
  "ReceiveCoilActiveElements": "HC1-7",
  "ReceiveCoilName": "HeadNeck_64",
  "ReconMatrixPE": 70,
  "RefLinesPE": 24,
  "RepetitionTime": 2,
  "SAR": 0.118039,
  "ScanOptions": "FS",
  "ScanningSequence": "EP",
  "SequenceName": "*epfid2d1_70",
  "SequenceVariant": "SK",
  "SeriesDescription": "BOLD_ep2d_3x3x3_response1",
  "SeriesNumber": 9,
  "ShimSetting": [5041, 3748, 4321, 218, -115, 23, -100, 39],
  "SliceThickness": 3,
  "SliceTiming": [0.9875, 0, 1.035, 0.045, 1.0825, 0.0925, 1.13, 0.14, 1.1775, 0.1875, 1.225, 0.235, 1.2725, 0.2825, 1.3175, 0.33, 1.365, 0.375, 1.4125, 0.4225, 1.46, 0.47, 1.5075, 0.5175, 1.555, 0.565, 1.6025, 0.6125, 1.6475, 0.6575, 1.695, 0.705, 1.7425, 0.7525, 1.79, 0.8, 1.8375, 0.8475, 1.885, 0.895, 1.9325, 0.9425],
  "SoftwareVersions": "syngo MR E11",
  "SpacingBetweenSlices": 3,
  "StationName": "AWP66061",
  "TaskName": "response",
  "TotalReadoutTime": 0.018975,
  "TxRefAmp": 219.091,
  "dcmmeta_affine": [
    [-2.999004602432251, -0.003663994837552309, 0.07719074934720993, 103.51658630371094],
    [-0.015171431005001068, 2.9662249088287354, -0.44864127039909363, -94.13080596923828],
    [0.07577377557754517, 0.4488827586174011, 2.965259313583374, -58.14601516723633],
    [0.0, 0.0, 0.0, 1.0]
],
  "dcmmeta_reorient_transform": [
    [0.0, -1.0, 0.0, 69.0],
    [1.0, 0.0, 0.0, 0.0],
    [0.0, 0.0, -1.0, 41.0],
    [0.0, 0.0, 0.0, 1.0]
],
  "dcmmeta_shape": [70, 70, 42, 341],
  "dcmmeta_slice_dim": 2,
  "dcmmeta_version": 0.6,
  "global": {
    "const": {
      "AcquisitionMatrix": [70, 0, 0, 70],
      "AngioFlag": "N",
      "BitsAllocated": 16,
      "BitsStored": 12,
      "BodyPartExamined": "HEAD",
      "Columns": 490,
      "EchoNumbers": 1,
      "EchoTime": 22.0,
      "EchoTrainLength": 35,
      "FlipAngle": 90.0,
      "HighBit": 11,
      "ImageOrientationPatient": [0.99966817623215, 0.00505714366068, 0.02525792403766, -0.0012213316119, 0.98874167118474, -0.1496275910783],
      "ImagePositionPatient": [-735.45010643501, -718.23767735041, 172.75541712791],
      "ImageType": [
        "ORIGINAL",
        "PRIMARY",
        "M",
        "ND",
        "NORM",
        "MOSAIC"
],
      "ImagedNucleus": "1H",
      "ImagingFrequency": 123.254585,
      "InPlanePhaseEncodingDirection": "COL",
      "MRAcquisitionType": "2D",
      "MagneticFieldStrength": 3.0,
      "Manufacturer": "SIEMENS",
      "ManufacturerModelName": "Prisma",
      "Modality": "MR",
      "NumberOfAverages": 1.0,
      "NumberOfPhaseEncodingSteps": 70,
      "PercentPhaseFieldOfView": 100.0,
      "PercentSampling": 100.0,
      "PerformedProcedureStepStartTime": "153555.717000",
      "PhotometricInterpretation": "MONOCHROME2",
      "PixelBandwidth": 2165.0,
      "PixelRepresentation": 0,
      "PixelSpacing": [3.0, 3.0],
      "ProtocolName": "BOLD_ep2d_3x3x3_response1",
      "RepetitionTime": 2000.0,
      "Rows": 490,
      "SAR": 0.11803914934198,
      "SamplesPerPixel": 1,
      "ScanOptions": "FS",
      "ScanningSequence": "EP",
      "SequenceName": "*epfid2d1_70",
      "SequenceVariant": "SK",
      "SeriesDescription": "BOLD_ep2d_3x3x3_response1",
      "SeriesNumber": 9,
      "SeriesTime": "162155.877000",
      "SliceLocation": 82.267826581098,
      "SliceThickness": 3.0,
      "SmallestImagePixelValue": 0,
      "SoftwareVersions": "syngo MR E11",
      "SpacingBetweenSlices": 2.9999999970541,
      "SpecificCharacterSet": "ISO_IR 100",
      "StudyID": "2",
      "StudyTime": "153555.671000",
      "TransmitCoilName": "Body",
      "VariableFlipAngleFlag": "N",
      "WindowCenterWidthExplanation": "Algo1",
      "dBdt": 0.0},
    "slices": {}
  },
  "time": {
    "samples": {
      "AcquisitionNumber": [1, 2, 3, 4, 5, 6, 7, 8, 9, 10, 11, 12, 13, 14, 15, 16, 17, 18, 19, 20, 21, 22, 23, 24, 25, 26, 27, 28, 29, 30, 31, 32, 33, 34, 35, 36, 37, 38, 39, 40, 41, 42, 43, 44, 45, 46, 47, 48, 49, 50, 51, 52, 53, 54, 55, 56, 57, 58, 59, 60, 61, 62, 63, 64, 65, 66, 67, 68, 69, 70, 71, 72, 73, 74, 75, 76, 77, 78, 79, 80, 81, 82, 83, 84, 85, 86, 87, 88, 89, 90, 91, 92, 93, 94, 95, 96, 97, 98, 99, 100, 101, 102, 103, 104, 105, 106, 107, 108, 109, 110, 111, 112, 113, 114, 115, 116, 117, 118, 119, 120, 121, 122, 123, 124, 125, 126, 127, 128, 129, 130, 131, 132, 133, 134, 135, 136, 137, 138, 139, 140, 141, 142, 143, 144, 145, 146, 147, 148, 149, 150, 151, 152, 153, 154, 155, 156, 157, 158, 159, 160, 161, 162, 163, 164, 165, 166, 167, 168, 169, 170, 171, 172, 173, 174, 175, 176, 177, 178, 179, 180, 181, 182, 183, 184, 185, 186, 187, 188, 189, 190, 191, 192, 193, 194, 195, 196, 197, 198, 199, 200, 201, 202, 203, 204, 205, 206, 207, 208, 209, 210, 211, 212, 213, 214, 215, 216, 217, 218, 219, 220, 221, 222, 223, 224, 225, 226, 227, 228, 229, 230, 231, 232, 233, 234, 235, 236, 237, 238, 239, 240, 241, 242, 243, 244, 245, 246, 247, 248, 249, 250, 251, 252, 253, 254, 255, 256, 257, 258, 259, 260, 261, 262, 263, 264, 265, 266, 267, 268, 269, 270, 271, 272, 273, 274, 275, 276, 277, 278, 279, 280, 281, 282, 283, 284, 285, 286, 287, 288, 289, 290, 291, 292, 293, 294, 295, 296, 297, 298, 299, 300, 301, 302, 303, 304, 305, 306, 307, 308, 309, 310, 311, 312, 313, 314, 315, 316, 317, 318, 319, 320, 321, 322, 323, 324, 325, 326, 327, 328, 329, 330, 331, 332, 333, 334, 335, 336, 337, 338, 339, 340, 341],
      "AcquisitionTime": ["162102.027500", "162104.027500", "162106.027500", "162108.027500", "162110.027500", "162112.027500", "162114.027500", "162116.027500", "162118.027500", "162120.027500", "162122.027500", "162124.027500", "162126.027500", "162128.027500", "162130.027500", "162132.027500", "162134.027500", "162136.027500", "162138.027500", "162140.027500", "162142.027500", "162144.027500", "162146.027500", "162148.027500", "162150.027500", "162152.027500", "162154.027500", "162156.027500", "162158.027500", "162200.027500", "162202.027500", "162204.027500", "162206.027500", "162208.027500", "162210.027500", "162212.027500", "162214.027500", "162216.027500", "162218.027500", "162220.027500", "162222.027500", "162224.027500", "162226.027500", "162228.027500", "162230.027500", "162232.027500", "162234.027500", "162236.027500", "162238.027500", "162240.027500", "162242.027500", "162244.027500", "162246.027500", "162248.027500", "162250.027500", "162252.027500", "162254.027500", "162256.027500", "162258.027500", "162300.027500", "162302.027500", "162304.027500", "162306.027500", "162308.027500", "162310.027500", "162312.027500", "162314.027500", "162316.027500", "162318.027500", "162320.027500", "162322.027500", "162324.027500", "162326.027500", "162328.027500", "162330.027500", "162332.027500", "162334.027500", "162336.027500", "162338.027500", "162340.027500", "162342.027500", "162344.027500", "162346.027500", "162348.027500", "162350.027500", "162352.027500", "162354.027500", "162356.027500", "162358.027500", "162400.027500", "162402.027500", "162404.027500", "162406.027500", "162408.027500", "162410.027500", "162412.027500", "162414.027500", "162416.027500", "162418.027500", "162420.027500", "162422.027500", "162424.027500", "162426.027500", "162428.027500", "162430.027500", "162432.027500", "162434.027500", "162436.027500", "162438.027500", "162440.027500", "162442.027500", "162444.027500", "162446.027500", "162448.027500", "162450.027500", "162452.027500", "162454.027500", "162456.027500", "162458.027500", "162500.027500", "162502.027500", "162504.027500", "162506.027500", "162508.027500", "162510.027500", "162512.027500", "162514.027500", "162516.027500", "162518.027500", "162520.027500", "162522.027500", "162524.027500", "162526.027500", "162528.027500", "162530.027500", "162532.027500", "162534.027500", "162536.027500", "162538.027500", "162540.027500", "162542.027500", "162544.027500", "162546.027500", "162548.027500", "162550.027500", "162552.027500", "162554.027500", "162556.027500", "162558.027500", "162600.027500", "162602.027500", "162604.027500", "162606.027500", "162608.027500", "162610.027500", "162612.027500", "162614.027500", "162616.027500", "162618.027500", "162620.027500", "162622.027500", "162624.027500", "162626.027500", "162628.027500", "162630.027500", "162632.027500", "162634.027500", "162636.027500", "162638.027500", "162640.027500", "162642.027500", "162644.027500", "162646.027500", "162648.027500", "162650.027500", "162652.027500", "162654.027500", "162656.027500", "162658.027500", "162700.027500", "162702.027500", "162704.027500", "162706.027500", "162708.027500", "162710.027500", "162712.027500", "162714.027500", "162716.027500", "162718.027500", "162720.027500", "162722.027500", "162724.027500", "162726.027500", "162728.027500", "162730.027500", "162732.027500", "162734.027500", "162736.027500", "162738.027500", "162740.027500", "162742.027500", "162744.027500", "162746.027500", "162748.027500", "162750.027500", "162752.027500", "162754.027500", "162756.027500", "162758.027500", "162800.027500", "162802.027500", "162804.027500", "162806.027500", "162808.027500", "162810.027500", "162812.027500", "162814.027500", "162816.027500", "162818.027500", "162820.027500", "162822.027500", "162824.027500", "162826.027500", "162828.027500", "162830.027500", "162832.027500", "162834.027500", "162836.027500", "162838.027500", "162840.027500", "162842.027500", "162844.027500", "162846.027500", "162848.027500", "162850.027500", "162852.027500", "162854.027500", "162856.027500", "162858.027500", "162900.027500", "162902.027500", "162904.027500", "162906.027500", "162908.027500", "162910.027500", "162912.027500", "162914.027500", "162916.027500", "162918.027500", "162920.027500", "162922.027500", "162924.027500", "162926.027500", "162928.027500", "162930.027500", "162932.027500", "162934.027500", "162936.027500", "162938.027500", "162940.027500", "162942.027500", "162944.027500", "162946.027500", "162948.027500", "162950.027500", "162952.027500", "162954.027500", "162956.027500", "162958.027500", "163000.027500", "163002.027500", "163004.027500", "163006.027500", "163008.027500", "163010.027500", "163012.027500", "163014.027500", "163016.027500", "163018.027500", "163020.027500", "163022.027500", "163024.027500", "163026.027500", "163028.027500", "163030.027500", "163032.027500", "163034.027500", "163036.027500", "163038.027500", "163040.027500", "163042.027500", "163044.027500", "163046.027500", "163048.027500", "163050.027500", "163052.027500", "163054.027500", "163056.027500", "163058.027500", "163100.027500", "163102.027500", "163104.027500", "163106.027500", "163108.027500", "163110.027500", "163112.027500", "163114.027500", "163116.027500", "163118.027500", "163120.027500", "163122.027500", "163124.027500", "163126.027500", "163128.027500", "163130.027500", "163132.027500", "163134.027500", "163136.027500", "163138.027500", "163140.027500", "163142.027500", "163144.027500", "163146.027500", "163148.027500", "163150.027500", "163152.027500", "163154.027500", "163156.027500", "163158.027500", "163200.027500", "163202.027500", "163204.027500", "163206.027500", "163208.027500", "163210.027500", "163212.027500", "163214.027500", "163216.027500", "163218.027500", "163220.027500", "163222.027500"],
      "ContentTime": ["162155.880000", "162155.884000", "162155.887000", "162155.890000", "162155.892000", "162155.895000", "162155.898000", "162155.900000", "162155.903000", "162155.906000", "162155.909000", "162155.912000", "162155.914000", "162155.920000", "162155.922000", "162155.925000", "162155.928000", "162155.951000", "162155.954000", "162155.957000", "162155.960000", "162155.962000", "162155.965000", "162155.968000", "162155.970000", "162155.973000", "162155.976000", "162235.875000", "162235.878000", "162235.880000", "162235.883000", "162235.886000", "162235.889000", "162235.891000", "162235.894000", "162235.897000", "162235.899000", "162235.902000", "162235.905000", "162235.908000", "162235.910000", "162235.913000", "162235.916000", "162235.918000", "162235.921000", "162235.924000", "162235.927000", "162315.876000", "162315.879000", "162315.881000", "162315.884000", "162315.887000", "162315.889000", "162315.892000", "162315.895000", "162315.898000", "162315.901000", "162315.903000", "162315.906000", "162315.914000", "162315.917000", "162315.920000", "162315.923000", "162315.925000", "162315.928000", "162315.931000", "162315.933000", "162355.876000", "162355.879000", "162355.881000", "162355.884000", "162355.887000", "162355.890000", "162355.892000", "162355.895000", "162355.898000", "162355.901000", "162355.903000", "162355.906000", "162355.909000", "162355.911000", "162355.914000", "162355.917000", "162355.919000", "162355.922000", "162355.925000", "162355.928000", "162435.875000", "162435.878000", "162435.880000", "162435.883000", "162435.886000", "162435.889000", "162435.891000", "162435.894000", "162435.897000", "162435.900000", "162435.902000", "162435.905000", "162435.908000", "162435.910000", "162435.913000", "162435.916000", "162435.919000", "162435.921000", "162435.924000", "162435.927000", "162515.876000", "162515.879000", "162515.881000", "162515.884000", "162515.887000", "162515.889000", "162515.892000", "162515.895000", "162515.898000", "162515.900000", "162515.903000", "162515.906000", "162515.909000", "162515.911000", "162515.914000", "162515.917000", "162515.919000", "162515.922000", "162515.925000", "162515.928000", "162555.876000", "162555.879000", "162555.881000", "162555.884000", "162555.887000", "162555.890000", "162555.892000", "162555.895000", "162555.898000", "162555.901000", "162555.903000", "162555.906000", "162555.909000", "162555.912000", "162555.914000", "162555.917000", "162555.920000", "162555.923000", "162555.925000", "162555.928000", "162635.875000", "162635.878000", "162635.880000", "162635.883000", "162635.886000", "162635.889000", "162635.892000", "162635.894000", "162635.897000", "162635.900000", "162635.903000", "162635.905000", "162635.908000", "162635.911000", "162635.913000", "162635.916000", "162635.919000", "162635.921000", "162635.924000", "162635.927000", "162715.875000", "162715.878000", "162715.880000", "162715.883000", "162715.886000", "162715.889000", "162715.891000", "162715.894000", "162715.897000", "162715.900000", "162715.902000", "162715.905000", "162715.908000", "162715.911000", "162715.913000", "162715.916000", "162715.919000", "162715.921000", "162715.924000", "162715.927000", "162755.876000", "162755.879000", "162755.881000", "162755.884000", "162755.887000", "162755.890000", "162755.892000", "162755.895000", "162755.898000", "162755.901000", "162755.903000", "162755.906000", "162755.909000", "162755.911000", "162755.914000", "162755.917000", "162755.920000", "162755.923000", "162755.925000", "162755.928000", "162835.876000", "162835.879000", "162835.881000", "162835.884000", "162835.887000", "162835.890000", "162835.892000", "162835.897000", "162835.900000", "162835.903000", "162835.905000", "162835.908000", "162835.911000", "162835.913000", "162835.916000", "162835.919000", "162835.922000", "162835.924000", "162835.927000", "162835.930000", "162915.875000", "162915.878000", "162915.881000", "162915.883000", "162915.886000", "162915.889000", "162915.891000", "162915.894000", "162915.897000", "162915.900000", "162915.902000", "162915.905000", "162915.908000", "162915.911000", "162915.913000", "162915.916000", "162915.919000", "162915.921000", "162915.924000", "162915.927000", "162955.876000", "162955.879000", "162955.882000", "162955.885000", "162955.887000", "162955.890000", "162955.893000", "162955.896000", "162955.912000", "162955.916000", "162955.918000", "162955.921000", "162955.924000", "162955.927000", "162955.930000", "162955.933000", "162955.935000", "162955.938000", "162955.941000", "162955.944000", "163035.876000", "163035.879000", "163035.881000", "163035.884000", "163035.887000", "163035.890000", "163035.893000", "163035.896000", "163035.899000", "163035.901000", "163035.904000", "163035.907000", "163035.910000", "163035.912000", "163035.915000", "163035.918000", "163035.921000", "163035.923000", "163035.926000", "163035.929000", "163115.875000", "163115.878000", "163115.881000", "163115.883000", "163115.886000", "163115.889000", "163115.892000", "163115.894000", "163115.897000", "163115.900000", "163115.903000", "163115.905000", "163115.908000", "163115.911000", "163115.914000", "163115.916000", "163115.919000", "163115.922000", "163115.924000", "163115.927000", "163155.875000", "163155.878000", "163155.881000", "163155.883000", "163155.886000", "163155.889000", "163155.892000", "163155.894000", "163155.897000", "163155.900000", "163155.902000", "163155.905000", "163155.908000", "163155.911000", "163155.913000", "163155.916000", "163155.919000", "163155.922000", "163155.924000", "163155.927000", "163223.388000", "163223.391000", "163223.394000", "163223.397000", "163223.400000", "163223.403000", "163223.406000", "163223.408000", "163223.411000", "163223.414000", "163223.417000", "163223.421000", "163223.427000", "163223.431000"],
      "DataSetTrailingPadding": [
        "\u0000\u0000\u0000\u0000\u0000\u0000\u0000\u0000\u0000\u0000\u0000\u0000",
        "\u0000\u0000\u0000\u0000\u0000\u0000\u0000\u0000\u0000\u0000\u0000\u0000\u0000\u0000",
        "\u0000\u0000\u0000\u0000\u0000\u0000\u0000\u0000\u0000\u0000\u0000\u0000\u0000\u0000",
        "\u0000\u0000\u0000\u0000\u0000\u0000\u0000\u0000\u0000\u0000\u0000\u0000\u0000\u0000",
        "\u0000\u0000\u0000\u0000\u0000\u0000\u0000\u0000\u0000\u0000\u0000\u0000",
        "\u0000\u0000\u0000\u0000\u0000\u0000\u0000\u0000\u0000\u0000\u0000\u0000",
        "\u0000\u0000\u0000\u0000\u0000\u0000\u0000\u0000\u0000\u0000\u0000\u0000",
        "\u0000\u0000\u0000\u0000\u0000\u0000\u0000\u0000\u0000\u0000\u0000\u0000",
        "\u0000\u0000\u0000\u0000\u0000\u0000\u0000\u0000\u0000\u0000\u0000\u0000",
        "\u0000\u0000\u0000\u0000\u0000\u0000\u0000\u0000\u0000\u0000\u0000\u0000",
        "\u0000\u0000\u0000\u0000\u0000\u0000\u0000\u0000\u0000\u0000\u0000\u0000",
        "\u0000\u0000\u0000\u0000\u0000\u0000\u0000\u0000\u0000\u0000\u0000\u0000",
        "\u0000\u0000\u0000\u0000\u0000\u0000\u0000\u0000\u0000\u0000\u0000\u0000",
        "\u0000\u0000\u0000\u0000\u0000\u0000\u0000\u0000\u0000\u0000\u0000\u0000",
        "\u0000\u0000\u0000\u0000\u0000\u0000\u0000\u0000\u0000\u0000\u0000\u0000",
        "\u0000\u0000\u0000\u0000\u0000\u0000\u0000\u0000\u0000\u0000\u0000\u0000",
        "\u0000\u0000\u0000\u0000\u0000\u0000\u0000\u0000\u0000\u0000\u0000\u0000",
        "\u0000\u0000\u0000\u0000\u0000\u0000\u0000\u0000\u0000\u0000\u0000\u0000",
        "\u0000\u0000\u0000\u0000\u0000\u0000\u0000\u0000\u0000\u0000\u0000\u0000",
        "\u0000\u0000\u0000\u0000\u0000\u0000\u0000\u0000\u0000\u0000\u0000\u0000",
        "\u0000\u0000\u0000\u0000\u0000\u0000\u0000\u0000\u0000\u0000\u0000\u0000",
        "\u0000\u0000\u0000\u0000\u0000\u0000\u0000\u0000\u0000\u0000\u0000\u0000",
        "\u0000\u0000\u0000\u0000\u0000\u0000\u0000\u0000\u0000\u0000\u0000\u0000",
        "\u0000\u0000\u0000\u0000\u0000\u0000\u0000\u0000\u0000\u0000\u0000\u0000",
        "\u0000\u0000\u0000\u0000\u0000\u0000\u0000\u0000\u0000\u0000\u0000\u0000",
        "\u0000\u0000\u0000\u0000\u0000\u0000\u0000\u0000\u0000\u0000\u0000\u0000",
        "\u0000\u0000\u0000\u0000\u0000\u0000\u0000\u0000\u0000\u0000\u0000\u0000",
        "\u0000\u0000\u0000\u0000\u0000\u0000\u0000\u0000\u0000\u0000\u0000\u0000",
        "\u0000\u0000\u0000\u0000\u0000\u0000\u0000\u0000\u0000\u0000\u0000\u0000",
        "\u0000\u0000\u0000\u0000\u0000\u0000\u0000\u0000\u0000\u0000\u0000\u0000",
        "\u0000\u0000\u0000\u0000\u0000\u0000\u0000\u0000\u0000\u0000\u0000\u0000",
        "\u0000\u0000\u0000\u0000\u0000\u0000\u0000\u0000\u0000\u0000\u0000\u0000",
        "\u0000\u0000\u0000\u0000\u0000\u0000\u0000\u0000\u0000\u0000\u0000\u0000",
        "\u0000\u0000\u0000\u0000\u0000\u0000\u0000\u0000\u0000\u0000\u0000\u0000",
        "\u0000\u0000\u0000\u0000\u0000\u0000\u0000\u0000\u0000\u0000\u0000\u0000",
        "\u0000\u0000\u0000\u0000\u0000\u0000\u0000\u0000\u0000\u0000\u0000\u0000",
        "\u0000\u0000\u0000\u0000\u0000\u0000\u0000\u0000\u0000\u0000\u0000\u0000",
        "\u0000\u0000\u0000\u0000\u0000\u0000\u0000\u0000\u0000\u0000\u0000\u0000",
        "\u0000\u0000\u0000\u0000\u0000\u0000\u0000\u0000\u0000\u0000\u0000\u0000",
        "\u0000\u0000\u0000\u0000\u0000\u0000\u0000\u0000\u0000\u0000\u0000\u0000",
        "\u0000\u0000\u0000\u0000\u0000\u0000\u0000\u0000\u0000\u0000\u0000\u0000",
        "\u0000\u0000\u0000\u0000\u0000\u0000\u0000\u0000\u0000\u0000\u0000\u0000",
        "\u0000\u0000\u0000\u0000\u0000\u0000\u0000\u0000\u0000\u0000\u0000\u0000",
        "\u0000\u0000\u0000\u0000\u0000\u0000\u0000\u0000\u0000\u0000\u0000\u0000",
        "\u0000\u0000\u0000\u0000\u0000\u0000\u0000\u0000\u0000\u0000\u0000\u0000\u0000\u0000",
        "\u0000\u0000\u0000\u0000\u0000\u0000\u0000\u0000\u0000\u0000\u0000\u0000\u0000\u0000",
        "\u0000\u0000\u0000\u0000\u0000\u0000\u0000\u0000\u0000\u0000\u0000\u0000",
        "\u0000\u0000\u0000\u0000\u0000\u0000\u0000\u0000\u0000\u0000\u0000\u0000",
        "\u0000\u0000\u0000\u0000\u0000\u0000\u0000\u0000\u0000\u0000\u0000\u0000",
        "\u0000\u0000\u0000\u0000\u0000\u0000\u0000\u0000\u0000\u0000",
        "\u0000\u0000\u0000\u0000\u0000\u0000\u0000\u0000",
        "\u0000\u0000\u0000\u0000\u0000\u0000\u0000\u0000\u0000\u0000",
        "\u0000\u0000\u0000\u0000\u0000\u0000\u0000\u0000\u0000\u0000",
        "\u0000\u0000\u0000\u0000\u0000\u0000\u0000\u0000\u0000\u0000",
        "\u0000\u0000\u0000\u0000\u0000\u0000\u0000\u0000\u0000\u0000",
        "\u0000\u0000\u0000\u0000\u0000\u0000\u0000\u0000\u0000\u0000",
        "\u0000\u0000\u0000\u0000\u0000\u0000\u0000\u0000",
        "\u0000\u0000\u0000\u0000\u0000\u0000\u0000\u0000",
        "\u0000\u0000\u0000\u0000\u0000\u0000\u0000\u0000",
        "\u0000\u0000\u0000\u0000\u0000\u0000\u0000\u0000",
        "\u0000\u0000\u0000\u0000\u0000\u0000\u0000\u0000",
        "\u0000\u0000\u0000\u0000\u0000\u0000\u0000\u0000",
        "\u0000\u0000\u0000\u0000\u0000\u0000\u0000\u0000",
        "\u0000\u0000\u0000\u0000\u0000\u0000\u0000\u0000",
        "\u0000\u0000\u0000\u0000\u0000\u0000\u0000\u0000",
        "\u0000\u0000\u0000\u0000\u0000\u0000\u0000\u0000",
        "\u0000\u0000\u0000\u0000\u0000\u0000\u0000\u0000",
        "\u0000\u0000\u0000\u0000\u0000\u0000\u0000\u0000",
        "\u0000\u0000\u0000\u0000\u0000\u0000\u0000\u0000",
        "\u0000\u0000\u0000\u0000\u0000\u0000\u0000\u0000",
        "\u0000\u0000\u0000\u0000\u0000\u0000\u0000\u0000",
        "\u0000\u0000\u0000\u0000\u0000\u0000\u0000\u0000",
        "\u0000\u0000\u0000\u0000\u0000\u0000\u0000\u0000",
        "\u0000\u0000\u0000\u0000\u0000\u0000\u0000\u0000",
        "\u0000\u0000\u0000\u0000\u0000\u0000\u0000\u0000",
        "\u0000\u0000\u0000\u0000\u0000\u0000\u0000\u0000",
        "\u0000\u0000\u0000\u0000\u0000\u0000\u0000\u0000",
        "\u0000\u0000\u0000\u0000\u0000\u0000\u0000\u0000",
        "\u0000\u0000\u0000\u0000\u0000\u0000\u0000\u0000",
        "\u0000\u0000\u0000\u0000\u0000\u0000\u0000\u0000",
        "\u0000\u0000\u0000\u0000\u0000\u0000\u0000\u0000",
        "\u0000\u0000\u0000\u0000\u0000\u0000\u0000\u0000",
        "\u0000\u0000\u0000\u0000\u0000\u0000\u0000\u0000",
        "\u0000\u0000\u0000\u0000\u0000\u0000\u0000\u0000",
        "\u0000\u0000\u0000\u0000\u0000\u0000\u0000\u0000",
        "\u0000\u0000\u0000\u0000\u0000\u0000\u0000\u0000",
        "\u0000\u0000\u0000\u0000\u0000\u0000\u0000\u0000",
        "\u0000\u0000\u0000\u0000\u0000\u0000\u0000\u0000",
        "\u0000\u0000\u0000\u0000\u0000\u0000\u0000\u0000",
        "\u0000\u0000\u0000\u0000\u0000\u0000\u0000\u0000",
        "\u0000\u0000\u0000\u0000\u0000\u0000\u0000\u0000",
        "\u0000\u0000\u0000\u0000\u0000\u0000\u0000\u0000",
        "\u0000\u0000\u0000\u0000\u0000\u0000\u0000\u0000",
        "\u0000\u0000\u0000\u0000\u0000\u0000\u0000\u0000",
        "\u0000\u0000\u0000\u0000\u0000\u0000\u0000\u0000",
        "\u0000\u0000\u0000\u0000\u0000\u0000\u0000\u0000",
        "\u0000\u0000\u0000\u0000\u0000\u0000\u0000\u0000",
        "\u0000\u0000\u0000\u0000\u0000\u0000\u0000\u0000",
        "\u0000\u0000\u0000\u0000\u0000\u0000\u0000\u0000",
        "\u0000\u0000\u0000\u0000",
        "\u0000\u0000\u0000\u0000",
        "\u0000\u0000\u0000\u0000",
        "\u0000\u0000\u0000\u0000",
        "\u0000\u0000\u0000\u0000",
        "\u0000\u0000\u0000\u0000",
        "\u0000\u0000\u0000\u0000",
        "\u0000\u0000\u0000\u0000",
        "\u0000\u0000\u0000\u0000",
        "\u0000\u0000\u0000\u0000",
        "\u0000\u0000\u0000\u0000",
        "\u0000\u0000\u0000\u0000",
        "\u0000\u0000\u0000\u0000",
        "\u0000\u0000\u0000\u0000",
        "\u0000\u0000\u0000\u0000",
        "\u0000\u0000\u0000\u0000",
        "\u0000\u0000\u0000\u0000",
        "\u0000\u0000\u0000\u0000",
        "\u0000\u0000\u0000\u0000",
        "\u0000\u0000\u0000\u0000",
        "\u0000\u0000\u0000\u0000",
        "\u0000\u0000\u0000\u0000",
        "\u0000\u0000\u0000\u0000",
        "\u0000\u0000\u0000\u0000",
        "\u0000\u0000\u0000\u0000",
        "\u0000\u0000\u0000\u0000",
        "\u0000\u0000\u0000\u0000",
        "\u0000\u0000\u0000\u0000",
        "\u0000\u0000\u0000\u0000",
        "\u0000\u0000\u0000\u0000",
        "\u0000\u0000\u0000\u0000",
        "\u0000\u0000\u0000\u0000",
        "\u0000\u0000\u0000\u0000",
        "\u0000\u0000\u0000\u0000",
        "\u0000\u0000\u0000\u0000",
        "\u0000\u0000\u0000\u0000",
        "\u0000\u0000\u0000\u0000",
        "\u0000\u0000\u0000\u0000",
        "\u0000\u0000\u0000\u0000",
        "\u0000\u0000\u0000\u0000",
        "\u0000\u0000\u0000\u0000",
        "\u0000\u0000\u0000\u0000",
        "\u0000\u0000\u0000\u0000",
        "\u0000\u0000\u0000\u0000",
        "\u0000\u0000\u0000\u0000",
        "\u0000\u0000\u0000\u0000",
        "\u0000\u0000\u0000\u0000",
        "\u0000\u0000\u0000\u0000",
        "\u0000\u0000\u0000\u0000",
        "\u0000\u0000\u0000\u0000",
        "\u0000\u0000\u0000\u0000",
        "\u0000\u0000\u0000\u0000",
        "\u0000\u0000\u0000\u0000",
        "\u0000\u0000\u0000\u0000",
        "\u0000\u0000\u0000\u0000",
        "\u0000\u0000\u0000\u0000",
        "\u0000\u0000\u0000\u0000",
        "\u0000\u0000\u0000\u0000",
        "\u0000\u0000\u0000\u0000",
        "\u0000\u0000\u0000\u0000",
        "\u0000\u0000\u0000\u0000",
        "\u0000\u0000\u0000\u0000",
        "\u0000\u0000\u0000\u0000",
        "\u0000\u0000\u0000\u0000",
        "\u0000\u0000\u0000\u0000",
        "\u0000\u0000\u0000\u0000",
        "\u0000\u0000\u0000\u0000",
        "\u0000\u0000\u0000\u0000",
        "\u0000\u0000\u0000\u0000",
        "\u0000\u0000\u0000\u0000",
        "\u0000\u0000\u0000\u0000",
        "\u0000\u0000\u0000\u0000",
        "\u0000\u0000\u0000\u0000",
        "\u0000\u0000\u0000\u0000",
        "\u0000\u0000\u0000\u0000",
        "\u0000\u0000\u0000\u0000",
        "\u0000\u0000\u0000\u0000",
        "\u0000\u0000\u0000\u0000",
        "\u0000\u0000\u0000\u0000",
        "\u0000\u0000\u0000\u0000",
        "\u0000\u0000\u0000\u0000",
        "\u0000\u0000\u0000\u0000",
        "\u0000\u0000\u0000\u0000",
        "\u0000\u0000\u0000\u0000",
        "\u0000\u0000\u0000\u0000",
        "\u0000\u0000\u0000\u0000",
        "\u0000\u0000\u0000\u0000",
        "\u0000\u0000\u0000\u0000",
        "\u0000\u0000\u0000\u0000",
        "\u0000\u0000\u0000\u0000",
        "\u0000\u0000\u0000\u0000",
        "\u0000\u0000\u0000\u0000",
        "\u0000\u0000\u0000\u0000",
        "\u0000\u0000\u0000\u0000",
        "\u0000\u0000\u0000\u0000",
        "\u0000\u0000\u0000\u0000",
        "\u0000\u0000\u0000\u0000",
        "\u0000\u0000\u0000\u0000",
        "\u0000\u0000\u0000\u0000",
        "\u0000\u0000\u0000\u0000",
        "\u0000\u0000\u0000\u0000",
        "\u0000\u0000\u0000\u0000",
        "\u0000\u0000\u0000\u0000",
        "\u0000\u0000\u0000\u0000",
        "\u0000\u0000",
        "\u0000\u0000",
        "\u0000\u0000",
        "\u0000\u0000",
        "\u0000\u0000",
        "\u0000\u0000",
        "\u0000\u0000",
        "\u0000\u0000",
        "\u0000\u0000",
        "\u0000\u0000",
        "\u0000\u0000",
        "\u0000\u0000",
        "\u0000\u0000",
