{
  "AcquisitionMatrixPE": 70,
  "AcquisitionNumber": 1,
  "AcquisitionTime": "15:12:15.160000",
  "BandwidthPerPixelPhaseEncode": 51.948,
  "BaseResolution": 70,
  "BodyPartExamined": "HEAD",
  "CoilCombinationMethod": "Sum of Squares",
  "ConsistencyInfo": "N4_VE11C_LATEST_20160120",
  "ConversionSoftware": "dcm2niix",
  "ConversionSoftwareVersion": "v1.0.20220720",
  "DerivedVendorReportedEchoSpacing": 0.000550001,
  "DeviceSerialNumber": "66061",
  "DwellTime": 3.3e-06,
  "EchoTime": 0.022,
  "EchoTrainLength": 35,
  "EffectiveEchoSpacing": 0.000275,
  "FlipAngle": 90,
  "HeudiconvVersion": "1.1.1",
  "ImageOrientationPatientDICOM": [0.99988, 0.00354332, 0.0150767, -0.00122154, 0.988487, -0.151301],
  "ImageOrientationText": "Tra>Cor(-8.7)>Sag(0.9)",
  "ImageType": [
    "ORIGINAL",
    "PRIMARY",
    "M",
    "ND",
    "NORM",
    "MOSAIC"
],
  "ImagingFrequency": 123.255,
  "InPlanePhaseEncodingDirectionDICOM": "COL",
  "InstitutionAddress": "Street StreetNo,City/1c4204/,District,KR,ZIP",
  "InstitutionName": "SKKU",
  "InstitutionalDepartmentName": "Department",
  "MRAcquisitionType": "2D",
  "MagneticFieldStrength": 3,
  "Manufacturer": "Siemens",
  "ManufacturersModelName": "Prisma",
  "MatrixCoilMode": "GRAPPA",
  "Modality": "MR",
  "NonlinearGradientCorrection": false,
  "ParallelReductionFactorInPlane": 2,
  "PartialFourier": 1,
  "PatientPosition": "HFS",
  "PercentPhaseFOV": 100,
  "PercentSampling": 100,
  "PhaseEncodingDirection": "j-",
  "PhaseEncodingSteps": 70,
  "PhaseResolution": 1,
  "PixelBandwidth": 2165,
  "ProcedureStepDescription": "Head^PI:Others",
  "ProtocolName": "BOLD_ep2d_3x3x3_dimension2",
  "PulseSequenceDetails": "%SiemensSeq%\\ep2d_pace",
  "ReceiveCoilActiveElements": "HC1-6",
  "ReceiveCoilName": "HeadNeck_64",
  "ReconMatrixPE": 70,
  "RefLinesPE": 24,
  "RepetitionTime": 2,
  "SAR": 0.12146,
  "ScanOptions": "FS",
  "ScanningSequence": "EP",
  "SequenceName": "*epfid2d1_70",
  "SequenceVariant": "SK",
  "SeriesDescription": "BOLD_ep2d_3x3x3_dimension2",
  "SeriesNumber": 9,
  "ShimSetting": [5032, 3762, 4296, 8, -93, -83, -118, 38],
  "SliceThickness": 3,
  "SliceTiming": [0.99, 0, 1.0375, 0.0475, 1.085, 0.095, 1.1325, 0.1425, 1.1775, 0.19, 1.225, 0.235, 1.2725, 0.2825, 1.32, 0.33, 1.3675, 0.3775, 1.415, 0.425, 1.4625, 0.4725, 1.5075, 0.52, 1.555, 0.565, 1.6025, 0.6125, 1.65, 0.66, 1.6975, 0.7075, 1.745, 0.755, 1.7925, 0.8025, 1.8375, 0.8475, 1.885, 0.895, 1.9325, 0.9425],
  "SoftwareVersions": "syngo MR E11",
  "SpacingBetweenSlices": 3,
  "StationName": "AWP66061",
  "TaskName": "dimension",
  "TotalReadoutTime": 0.018975,
  "TxRefAmp": 220.742,
  "dcmmeta_affine": [
    [-2.9996402263641357, -0.003664624411612749, 0.046317823231220245, 103.62532806396484],
    [-0.010629965923726559, 2.965460777282715, -0.4537945091724396, -99.57878875732422],
    [0.045230232179164886, 0.4539042115211487, 2.965117931365967, -53.024620056152344],
    [0.0, 0.0, 0.0, 1.0]
],
  "dcmmeta_reorient_transform": [
    [0.0, -1.0, 0.0, 69.0],
    [1.0, 0.0, 0.0, 0.0],
    [0.0, 0.0, -1.0, 41.0],
    [0.0, 0.0, 0.0, 1.0]
],
  "dcmmeta_shape": [70, 70, 42, 437],
  "dcmmeta_slice_dim": 2,
  "dcmmeta_version": 0.6,
  "global": {
    "const": {
      "AcquisitionMatrix": [70, 0, 0, 70],
      "AngioFlag": "N",
      "BitsAllocated": 16,
      "BitsStored": 12,
      "BodyPartExamined": "HEAD",
      "Columns": 490,
      "EchoNumbers": 1,
      "EchoTime": 22.0,
      "EchoTrainLength": 35,
      "FlipAngle": 90.0,
      "HighBit": 11,
      "ImageOrientationPatient": [0.99988006113087, 0.00354332203475, 0.01507674440595, -0.0012215414594, 0.98848692155862, -0.1513014003373],
      "ImagePositionPatient": [-734.42636908025, -711.41148372558, 185.68614200699],
      "ImageType": [
        "ORIGINAL",
        "PRIMARY",
        "M",
        "ND",
        "NORM",
        "MOSAIC"
],
      "ImagedNucleus": "1H",
      "ImagingFrequency": 123.254584,
      "InPlanePhaseEncodingDirection": "COL",
      "MRAcquisitionType": "2D",
      "MagneticFieldStrength": 3.0,
      "Manufacturer": "SIEMENS",
      "ManufacturerModelName": "Prisma",
      "Modality": "MR",
      "NumberOfAverages": 1.0,
      "NumberOfPhaseEncodingSteps": 70,
      "PercentPhaseFieldOfView": 100.0,
      "PercentSampling": 100.0,
      "PerformedProcedureStepStartTime": "141155.427000",
      "PhotometricInterpretation": "MONOCHROME2",
      "PixelBandwidth": 2165.0,
      "PixelRepresentation": 0,
      "PixelSpacing": [3.0, 3.0],
      "ProtocolName": "BOLD_ep2d_3x3x3_dimension2",
      "RepetitionTime": 2000.0,
      "Rows": 490,
      "SAR": 0.1214596820256,
      "SamplesPerPixel": 1,
      "ScanOptions": "FS",
      "ScanningSequence": "EP",
      "SequenceName": "*epfid2d1_70",
      "SequenceVariant": "SK",
      "SeriesDescription": "BOLD_ep2d_3x3x3_dimension2",
      "SeriesNumber": 9,
      "SeriesTime": "151312.527000",
      "SliceLocation": 87.254580341944,
      "SliceThickness": 3.0,
      "SmallestImagePixelValue": 0,
      "SoftwareVersions": "syngo MR E11",
      "SpacingBetweenSlices": 2.9999999641324,
      "SpecificCharacterSet": "ISO_IR 100",
      "StudyID": "1",
      "StudyTime": "141155.365000",
      "TransmitCoilName": "Body",
      "VariableFlipAngleFlag": "N",
      "WindowCenterWidthExplanation": "Algo1",
      "dBdt": 0.0},
    "slices": {}
  },
  "time": {
    "samples": {
      "AcquisitionNumber": [1, 2, 3, 4, 5, 6, 7, 8, 9, 10, 11, 12, 13, 14, 15, 16, 17, 18, 19, 20, 21, 22, 23, 24, 25, 26, 27, 28, 29, 30, 31, 32, 33, 34, 35, 36, 37, 38, 39, 40, 41, 42, 43, 44, 45, 46, 47, 48, 49, 50, 51, 52, 53, 54, 55, 56, 57, 58, 59, 60, 61, 62, 63, 64, 65, 66, 67, 68, 69, 70, 71, 72, 73, 74, 75, 76, 77, 78, 79, 80, 81, 82, 83, 84, 85, 86, 87, 88, 89, 90, 91, 92, 93, 94, 95, 96, 97, 98, 99, 100, 101, 102, 103, 104, 105, 106, 107, 108, 109, 110, 111, 112, 113, 114, 115, 116, 117, 118, 119, 120, 121, 122, 123, 124, 125, 126, 127, 128, 129, 130, 131, 132, 133, 134, 135, 136, 137, 138, 139, 140, 141, 142, 143, 144, 145, 146, 147, 148, 149, 150, 151, 152, 153, 154, 155, 156, 157, 158, 159, 160, 161, 162, 163, 164, 165, 166, 167, 168, 169, 170, 171, 172, 173, 174, 175, 176, 177, 178, 179, 180, 181, 182, 183, 184, 185, 186, 187, 188, 189, 190, 191, 192, 193, 194, 195, 196, 197, 198, 199, 200, 201, 202, 203, 204, 205, 206, 207, 208, 209, 210, 211, 212, 213, 214, 215, 216, 217, 218, 219, 220, 221, 222, 223, 224, 225, 226, 227, 228, 229, 230, 231, 232, 233, 234, 235, 236, 237, 238, 239, 240, 241, 242, 243, 244, 245, 246, 247, 248, 249, 250, 251, 252, 253, 254, 255, 256, 257, 258, 259, 260, 261, 262, 263, 264, 265, 266, 267, 268, 269, 270, 271, 272, 273, 274, 275, 276, 277, 278, 279, 280, 281, 282, 283, 284, 285, 286, 287, 288, 289, 290, 291, 292, 293, 294, 295, 296, 297, 298, 299, 300, 301, 302, 303, 304, 305, 306, 307, 308, 309, 310, 311, 312, 313, 314, 315, 316, 317, 318, 319, 320, 321, 322, 323, 324, 325, 326, 327, 328, 329, 330, 331, 332, 333, 334, 335, 336, 337, 338, 339, 340, 341, 342, 343, 344, 345, 346, 347, 348, 349, 350, 351, 352, 353, 354, 355, 356, 357, 358, 359, 360, 361, 362, 363, 364, 365, 366, 367, 368, 369, 370, 371, 372, 373, 374, 375, 376, 377, 378, 379, 380, 381, 382, 383, 384, 385, 386, 387, 388, 389, 390, 391, 392, 393, 394, 395, 396, 397, 398, 399, 400, 401, 402, 403, 404, 405, 406, 407, 408, 409, 410, 411, 412, 413, 414, 415, 416, 417, 418, 419, 420, 421, 422, 423, 424, 425, 426, 427, 428, 429, 430, 431, 432, 433, 434, 435, 436, 437],
      "AcquisitionTime": ["151215.160000", "151217.160000", "151219.160000", "151221.160000", "151223.160000", "151225.160000", "151227.160000", "151229.160000", "151231.160000", "151233.160000", "151235.160000", "151237.160000", "151239.160000", "151241.160000", "151243.160000", "151245.160000", "151247.160000", "151249.160000", "151251.160000", "151253.160000", "151255.160000", "151257.160000", "151259.160000", "151301.160000", "151303.160000", "151305.160000", "151307.160000", "151309.160000", "151311.160000", "151313.160000", "151315.160000", "151317.160000", "151319.160000", "151321.160000", "151323.160000", "151325.160000", "151327.160000", "151329.160000", "151331.160000", "151333.160000", "151335.160000", "151337.160000", "151339.160000", "151341.160000", "151343.160000", "151345.160000", "151347.160000", "151349.160000", "151351.160000", "151353.160000", "151355.160000", "151357.160000", "151359.160000", "151401.160000", "151403.160000", "151405.160000", "151407.160000", "151409.160000", "151411.160000", "151413.160000", "151415.160000", "151417.160000", "151419.160000", "151421.160000", "151423.160000", "151425.160000", "151427.160000", "151429.160000", "151431.160000", "151433.160000", "151435.160000", "151437.160000", "151439.160000", "151441.160000", "151443.160000", "151445.160000", "151447.160000", "151449.160000", "151451.160000", "151453.160000", "151455.160000", "151457.160000", "151459.160000", "151501.160000", "151503.160000", "151505.160000", "151507.160000", "151509.160000", "151511.160000", "151513.160000", "151515.160000", "151517.160000", "151519.160000", "151521.160000", "151523.160000", "151525.160000", "151527.160000", "151529.160000", "151531.160000", "151533.160000", "151535.160000", "151537.160000", "151539.160000", "151541.160000", "151543.160000", "151545.160000", "151547.160000", "151549.160000", "151551.160000", "151553.160000", "151555.160000", "151557.160000", "151559.160000", "151601.160000", "151603.160000", "151605.160000", "151607.160000", "151609.160000", "151611.160000", "151613.160000", "151615.160000", "151617.160000", "151619.160000", "151621.160000", "151623.160000", "151625.160000", "151627.160000", "151629.160000", "151631.160000", "151633.160000", "151635.160000", "151637.160000", "151639.160000", "151641.160000", "151643.160000", "151645.160000", "151647.160000", "151649.160000", "151651.160000", "151653.160000", "151655.160000", "151657.160000", "151659.160000", "151701.160000", "151703.160000", "151705.160000", "151707.160000", "151709.160000", "151711.160000", "151713.160000", "151715.160000", "151717.160000", "151719.160000", "151721.160000", "151723.160000", "151725.160000", "151727.160000", "151729.160000", "151731.160000", "151733.160000", "151735.160000", "151737.160000", "151739.160000", "151741.160000", "151743.160000", "151745.160000", "151747.160000", "151749.160000", "151751.160000", "151753.160000", "151755.160000", "151757.160000", "151759.160000", "151801.160000", "151803.160000", "151805.160000", "151807.160000", "151809.160000", "151811.160000", "151813.160000", "151815.160000", "151817.160000", "151819.160000", "151821.160000", "151823.160000", "151825.160000", "151827.160000", "151829.160000", "151831.160000", "151833.160000", "151835.160000", "151837.160000", "151839.160000", "151841.160000", "151843.160000", "151845.160000", "151847.160000", "151849.160000", "151851.160000", "151853.160000", "151855.160000", "151857.160000", "151859.160000", "151901.160000", "151903.160000", "151905.160000", "151907.160000", "151909.160000", "151911.160000", "151913.160000", "151915.160000", "151917.160000", "151919.160000", "151921.160000", "151923.160000", "151925.160000", "151927.160000", "151929.160000", "151931.160000", "151933.160000", "151935.160000", "151937.160000", "151939.160000", "151941.160000", "151943.160000", "151945.160000", "151947.160000", "151949.160000", "151951.160000", "151953.160000", "151955.160000", "151957.160000", "151959.160000", "152001.160000", "152003.160000", "152005.160000", "152007.160000", "152009.160000", "152011.160000", "152013.160000", "152015.160000", "152017.160000", "152019.160000", "152021.160000", "152023.160000", "152025.160000", "152027.160000", "152029.160000", "152031.160000", "152033.160000", "152035.160000", "152037.160000", "152039.160000", "152041.160000", "152043.160000", "152045.160000", "152047.160000", "152049.160000", "152051.160000", "152053.160000", "152055.160000", "152057.160000", "152059.160000", "152101.160000", "152103.160000", "152105.160000", "152107.160000", "152109.160000", "152111.160000", "152113.160000", "152115.160000", "152117.160000", "152119.160000", "152121.160000", "152123.160000", "152125.160000", "152127.160000", "152129.160000", "152131.160000", "152133.160000", "152135.160000", "152137.160000", "152139.160000", "152141.160000", "152143.160000", "152145.160000", "152147.160000", "152149.160000", "152151.160000", "152153.160000", "152155.160000", "152157.160000", "152159.160000", "152201.160000", "152203.160000", "152205.160000", "152207.160000", "152209.160000", "152211.160000", "152213.160000", "152215.160000", "152217.160000", "152219.160000", "152221.160000", "152223.160000", "152225.160000", "152227.160000", "152229.160000", "152231.160000", "152233.160000", "152235.160000", "152237.160000", "152239.160000", "152241.160000", "152243.160000", "152245.160000", "152247.160000", "152249.160000", "152251.160000", "152253.160000", "152255.160000", "152257.160000", "152259.160000", "152301.160000", "152303.160000", "152305.160000", "152307.160000", "152309.160000", "152311.160000", "152313.160000", "152315.160000", "152317.160000", "152319.160000", "152321.160000", "152323.160000", "152325.160000", "152327.160000", "152329.160000", "152331.160000", "152333.160000", "152335.160000", "152337.160000", "152339.160000", "152341.160000", "152343.160000", "152345.160000", "152347.160000", "152349.160000", "152351.160000", "152353.160000", "152355.160000", "152357.160000", "152359.160000", "152401.160000", "152403.160000", "152405.160000", "152407.160000", "152409.160000", "152411.160000", "152413.160000", "152415.160000", "152417.160000", "152419.160000", "152421.160000", "152423.160000", "152425.160000", "152427.160000", "152429.160000", "152431.160000", "152433.160000", "152435.160000", "152437.160000", "152439.160000", "152441.160000", "152443.160000", "152445.160000", "152447.160000", "152449.160000", "152451.160000", "152453.160000", "152455.160000", "152457.160000", "152459.160000", "152501.160000", "152503.160000", "152505.160000", "152507.160000", "152509.160000", "152511.160000", "152513.160000", "152515.160000", "152517.160000", "152519.160000", "152521.160000", "152523.160000", "152525.160000", "152527.160000", "152529.160000", "152531.160000", "152533.160000", "152535.160000", "152537.160000", "152539.160000", "152541.160000", "152543.160000", "152545.160000", "152547.160000", "152549.160000", "152551.160000", "152553.160000", "152555.160000", "152557.160000", "152559.160000", "152601.160000", "152603.160000", "152605.160000", "152607.160000", "152609.160000", "152611.160000", "152613.160000", "152615.160000", "152617.160000", "152619.160000", "152621.160000", "152623.160000", "152625.160000", "152627.160000", "152629.160000", "152631.160000", "152633.160000", "152635.160000", "152637.160000", "152639.160000", "152641.160000", "152643.160000", "152645.160000", "152647.160000"],
      "ContentTime": ["151312.532000", "151312.536000", "151312.539000", "151312.547000", "151312.550000", "151312.553000", "151312.564000", "151312.567000", "151312.570000", "151312.573000", "151312.576000", "151312.579000", "151312.583000", "151312.586000", "151312.589000", "151312.592000", "151312.595000", "151312.599000", "151312.601000", "151312.604000", "151312.607000", "151312.610000", "151312.613000", "151312.616000", "151312.619000", "151312.622000", "151312.625000", "151312.627000", "151312.630000", "151352.526000", "151352.535000", "151352.537000", "151352.540000", "151352.543000", "151352.546000", "151352.549000", "151352.552000", "151352.561000", "151352.564000", "151352.567000", "151352.569000", "151352.572000", "151352.575000", "151352.578000", "151352.580000", "151352.583000", "151352.586000", "151352.589000", "151352.592000", "151432.527000", "151432.530000", "151432.537000", "151432.540000", "151432.543000", "151432.545000", "151432.548000", "151432.551000", "151432.554000", "151432.563000", "151432.565000", "151432.568000", "151432.571000", "151432.574000", "151432.576000", "151432.579000", "151432.582000", "151432.585000", "151432.588000", "151432.607000", "151512.526000", "151512.529000", "151512.531000", "151512.534000", "151512.537000", "151512.540000", "151512.543000", "151512.546000", "151512.548000", "151512.551000", "151512.554000", "151512.557000", "151512.560000", "151512.562000", "151512.565000", "151512.570000", "151512.573000", "151512.576000", "151512.579000", "151512.582000", "151552.526000", "151552.529000", "151552.531000", "151552.534000", "151552.537000", "151552.540000", "151552.543000", "151552.546000", "151552.548000", "151552.551000", "151552.554000", "151552.557000", "151552.559000", "151552.562000", "151552.565000", "151552.572000", "151552.575000", "151552.578000", "151552.580000", "151552.583000", "151632.526000", "151632.529000", "151632.532000", "151632.535000", "151632.537000", "151632.540000", "151632.543000", "151632.546000", "151632.548000", "151632.551000", "151632.554000", "151632.557000", "151632.560000", "151632.562000", "151632.565000", "151632.568000", "151632.571000", "151632.573000", "151632.576000", "151632.579000", "151712.526000", "151712.529000", "151712.531000", "151712.534000", "151712.537000", "151712.540000", "151712.543000", "151712.546000", "151712.548000", "151712.551000", "151712.554000", "151712.557000", "151712.560000", "151712.562000", "151712.565000", "151712.568000", "151712.571000", "151712.573000", "151712.576000", "151712.579000", "151752.526000", "151752.529000", "151752.541000", "151752.543000", "151752.546000", "151752.549000", "151752.552000", "151752.555000", "151752.557000", "151752.560000", "151752.563000", "151752.566000", "151752.569000", "151752.571000", "151752.574000", "151752.577000", "151752.580000", "151752.583000", "151752.586000", "151752.588000", "151832.526000", "151832.529000", "151832.532000", "151832.534000", "151832.537000", "151832.540000", "151832.543000", "151832.546000", "151832.548000", "151832.551000", "151832.554000", "151832.557000", "151832.560000", "151832.563000", "151832.566000", "151832.568000", "151832.571000", "151832.574000", "151832.577000", "151832.580000", "151912.527000", "151912.530000", "151912.533000", "151912.536000", "151912.538000", "151912.541000", "151912.544000", "151912.547000", "151912.550000", "151912.552000", "151912.555000", "151912.558000", "151912.561000", "151912.564000", "151912.566000", "151912.569000", "151912.572000", "151912.575000", "151912.578000", "151912.581000", "151952.526000", "151952.529000", "151952.532000", "151952.534000", "151952.537000", "151952.540000", "151952.543000", "151952.555000", "151952.557000", "151952.560000", "151952.563000", "151952.566000", "151952.569000", "151952.571000", "151952.574000", "151952.577000", "151952.580000", "151952.582000", "151952.585000", "151952.588000", "152032.526000", "152032.529000", "152032.532000", "152032.534000", "152032.537000", "152032.540000", "152032.543000", "152032.546000", "152032.549000", "152032.551000", "152032.554000", "152032.557000", "152032.560000", "152032.563000", "152032.566000", "152032.568000", "152032.571000", "152032.574000", "152032.577000", "152032.579000", "152112.526000", "152112.529000", "152112.532000", "152112.535000", "152112.537000", "152112.540000", "152112.543000", "152112.546000", "152112.549000", "152112.551000", "152112.554000", "152112.557000", "152112.560000", "152112.563000", "152112.566000", "152112.568000", "152112.571000", "152112.574000", "152112.577000", "152112.583000", "152152.526000", "152152.529000", "152152.532000", "152152.535000", "152152.537000", "152152.540000", "152152.543000", "152152.546000", "152152.549000", "152152.552000", "152152.555000", "152152.557000", "152152.560000", "152152.563000", "152152.566000", "152152.569000", "152152.571000", "152152.574000", "152152.577000", "152152.580000", "152232.526000", "152232.529000", "152232.532000", "152232.535000", "152232.537000", "152232.543000", "152232.546000", "152232.549000", "152232.551000", "152232.554000", "152232.557000", "152232.560000", "152232.563000", "152232.566000", "152232.568000", "152232.571000", "152232.574000", "152232.589000", "152232.592000", "152232.595000", "152312.526000", "152312.529000", "152312.532000", "152312.535000", "152312.537000", "152312.540000", "152312.543000", "152312.546000", "152312.549000", "152312.552000", "152312.555000", "152312.557000", "152312.560000", "152312.563000", "152312.566000", "152312.569000", "152312.572000", "152312.575000", "152312.578000", "152312.580000", "152352.527000", "152352.530000", "152352.533000", "152352.535000", "152352.538000", "152352.541000", "152352.544000", "152352.547000", "152352.550000", "152352.553000", "152352.555000", "152352.558000", "152352.561000", "152352.564000", "152352.567000", "152352.570000", "152352.572000", "152352.575000", "152352.578000", "152352.581000", "152432.526000", "152432.529000", "152432.532000", "152432.534000", "152432.537000", "152432.540000", "152432.543000", "152432.546000", "152432.549000", "152432.551000", "152432.554000", "152432.557000", "152432.560000", "152432.563000", "152432.565000", "152432.568000", "152432.571000", "152432.574000", "152432.577000", "152432.579000", "152512.526000", "152512.529000", "152512.531000", "152512.534000", "152512.537000", "152512.540000", "152512.543000", "152512.546000", "152512.549000", "152512.551000", "152512.554000", "152512.557000", "152512.560000", "152512.563000", "152512.565000", "152512.568000", "152512.571000", "152512.574000", "152512.577000", "152512.580000", "152552.527000", "152552.530000", "152552.533000", "152552.535000", "152552.538000", "152552.541000", "152552.544000", "152552.547000", "152552.550000", "152552.552000", "152552.555000", "152552.558000", "152552.561000", "152552.564000", "152552.566000", "152552.569000", "152552.572000", "152552.575000", "152552.578000", "152552.581000", "152632.526000", "152632.529000", "152632.532000", "152632.535000", "152632.538000", "152632.540000", "152632.543000", "152632.546000", "152632.549000", "152632.552000", "152632.555000", "152632.558000", "152632.560000", "152632.563000", "152632.566000", "152632.569000", "152632.572000", "152632.574000", "152632.577000", "152632.580000", "152648.495000", "152648.498000", "152648.501000", "152648.504000", "152648.506000", "152648.509000", "152648.512000", "152648.515000"],
      "DataSetTrailingPadding": [
        "\u0000\u0000\u0000\u0000\u0000\u0000\u0000\u0000\u0000\u0000\u0000\u0000\u0000\u0000\u0000\u0000\u0000\u0000\u0000\u0000\u0000\u0000\u0000\u0000\u0000\u0000\u0000\u0000\u0000\u0000\u0000\u0000\u0000\u0000\u0000\u0000\u0000\u0000\u0000\u0000\u0000\u0000\u0000\u0000\u0000\u0000\u0000\u0000\u0000\u0000\u0000\u0000\u0000\u0000\u0000\u0000\u0000\u0000\u0000\u0000\u0000\u0000\u0000\u0000\u0000\u0000\u0000\u0000\u0000\u0000\u0000\u0000\u0000\u0000\u0000\u0000\u0000\u0000\u0000\u0000\u0000\u0000\u0000\u0000\u0000\u0000\u0000\u0000\u0000\u0000\u0000\u0000\u0000\u0000\u0000\u0000\u0000\u0000\u0000\u0000\u0000\u0000\u0000\u0000\u0000\u0000\u0000\u0000\u0000\u0000\u0000\u0000\u0000\u0000\u0000\u0000\u0000\u0000\u0000\u0000\u0000\u0000\u0000\u0000\u0000\u0000\u0000\u0000\u0000\u0000\u0000\u0000\u0000\u0000\u0000\u0000\u0000\u0000\u0000\u0000\u0000\u0000\u0000\u0000\u0000\u0000\u0000\u0000\u0000\u0000\u0000\u0000\u0000\u0000\u0000\u0000\u0000\u0000\u0000\u0000\u0000\u0000\u0000\u0000\u0000\u0000\u0000\u0000\u0000\u0000\u0000\u0000\u0000\u0000\u0000\u0000\u0000\u0000\u0000\u0000\u0000\u0000\u0000\u0000\u0000\u0000\u0000\u0000\u0000\u0000\u0000\u0000\u0000\u0000\u0000\u0000\u0000\u0000\u0000\u0000\u0000\u0000\u0000\u0000\u0000\u0000\u0000\u0000\u0000\u0000\u0000\u0000\u0000\u0000\u0000\u0000\u0000\u0000\u0000\u0000\u0000\u0000\u0000\u0000\u0000\u0000\u0000\u0000\u0000\u0000\u0000\u0000\u0000\u0000\u0000\u0000\u0000\u0000\u0000\u0000\u0000\u0000\u0000\u0000\u0000\u0000\u0000\u0000\u0000\u0000\u0000\u0000\u0000\u0000\u0000\u0000\u0000\u0000\u0000\u0000\u0000\u0000\u0000\u0000\u0000\u0000\u0000\u0000\u0000\u0000\u0000\u0000\u0000\u0000\u0000\u0000\u0000\u0000\u0000\u0000\u0000\u0000\u0000\u0000\u0000\u0000\u0000\u0000\u0000\u0000\u0000\u0000\u0000\u0000\u0000\u0000\u0000\u0000\u0000\u0000\u0000\u0000\u0000\u0000\u0000\u0000\u0000\u0000\u0000\u0000\u0000\u0000\u0000\u0000\u0000\u0000\u0000\u0000\u0000\u0000\u0000\u0000\u0000\u0000\u0000\u0000\u0000\u0000",
        "\u0000\u0000\u0000\u0000\u0000\u0000\u0000\u0000\u0000\u0000\u0000\u0000\u0000\u0000\u0000\u0000\u0000\u0000\u0000\u0000\u0000\u0000\u0000\u0000\u0000\u0000\u0000\u0000\u0000\u0000\u0000\u0000\u0000\u0000\u0000\u0000\u0000\u0000\u0000\u0000\u0000\u0000\u0000\u0000\u0000\u0000\u0000\u0000\u0000\u0000\u0000\u0000\u0000\u0000\u0000\u0000\u0000\u0000\u0000\u0000\u0000\u0000\u0000\u0000\u0000\u0000\u0000\u0000\u0000\u0000\u0000\u0000\u0000\u0000\u0000\u0000\u0000\u0000\u0000\u0000\u0000\u0000\u0000\u0000\u0000\u0000\u0000\u0000\u0000\u0000\u0000\u0000\u0000\u0000\u0000\u0000\u0000\u0000\u0000\u0000\u0000\u0000\u0000\u0000\u0000\u0000\u0000\u0000\u0000\u0000\u0000\u0000\u0000\u0000\u0000\u0000\u0000\u0000\u0000\u0000\u0000\u0000\u0000\u0000\u0000\u0000\u0000\u0000\u0000\u0000\u0000\u0000\u0000\u0000\u0000\u0000\u0000\u0000\u0000\u0000\u0000\u0000\u0000\u0000\u0000\u0000\u0000\u0000\u0000\u0000\u0000\u0000\u0000\u0000\u0000\u0000\u0000\u0000\u0000\u0000\u0000\u0000\u0000\u0000\u0000\u0000\u0000\u0000\u0000\u0000\u0000\u0000\u0000\u0000\u0000\u0000\u0000\u0000\u0000\u0000\u0000\u0000\u0000\u0000\u0000\u0000\u0000\u0000\u0000\u0000\u0000\u0000\u0000\u0000\u0000\u0000\u0000\u0000\u0000\u0000\u0000\u0000\u0000\u0000\u0000\u0000\u0000\u0000\u0000\u0000\u0000\u0000\u0000\u0000\u0000\u0000\u0000\u0000\u0000\u0000\u0000\u0000\u0000\u0000\u0000\u0000\u0000\u0000\u0000\u0000\u0000\u0000\u0000\u0000\u0000\u0000\u0000\u0000\u0000\u0000\u0000\u0000\u0000\u0000\u0000\u0000\u0000\u0000\u0000\u0000\u0000\u0000\u0000\u0000\u0000\u0000\u0000\u0000\u0000\u0000\u0000\u0000\u0000\u0000\u0000\u0000\u0000\u0000\u0000\u0000\u0000\u0000\u0000\u0000\u0000\u0000\u0000\u0000\u0000\u0000\u0000\u0000\u0000\u0000\u0000\u0000\u0000\u0000\u0000\u0000\u0000\u0000\u0000\u0000\u0000\u0000\u0000\u0000\u0000\u0000\u0000\u0000\u0000\u0000\u0000\u0000\u0000\u0000\u0000\u0000\u0000\u0000\u0000\u0000\u0000\u0000\u0000\u0000\u0000\u0000\u0000\u0000\u0000\u0000\u0000\u0000",
        "\u0000\u0000\u0000\u0000\u0000\u0000\u0000\u0000\u0000\u0000\u0000\u0000\u0000\u0000\u0000\u0000\u0000\u0000\u0000\u0000\u0000\u0000\u0000\u0000\u0000\u0000\u0000\u0000\u0000\u0000\u0000\u0000\u0000\u0000\u0000\u0000\u0000\u0000\u0000\u0000\u0000\u0000\u0000\u0000\u0000\u0000\u0000\u0000\u0000\u0000\u0000\u0000\u0000\u0000\u0000\u0000\u0000\u0000\u0000\u0000\u0000\u0000\u0000\u0000\u0000\u0000\u0000\u0000\u0000\u0000\u0000\u0000\u0000\u0000\u0000\u0000\u0000\u0000\u0000\u0000\u0000\u0000\u0000\u0000\u0000\u0000\u0000\u0000\u0000\u0000\u0000\u0000\u0000\u0000\u0000\u0000\u0000\u0000\u0000\u0000\u0000\u0000\u0000\u0000\u0000\u0000\u0000\u0000\u0000\u0000\u0000\u0000\u0000\u0000\u0000\u0000\u0000\u0000\u0000\u0000\u0000\u0000\u0000\u0000\u0000\u0000\u0000\u0000\u0000\u0000\u0000\u0000\u0000\u0000\u0000\u0000\u0000\u0000\u0000\u0000\u0000\u0000\u0000\u0000\u0000\u0000\u0000\u0000\u0000\u0000\u0000\u0000\u0000\u0000\u0000\u0000\u0000\u0000\u0000\u0000\u0000\u0000\u0000\u0000\u0000\u0000\u0000\u0000\u0000\u0000\u0000\u0000\u0000\u0000\u0000\u0000\u0000\u0000\u0000\u0000\u0000\u0000\u0000\u0000\u0000\u0000\u0000\u0000\u0000\u0000\u0000\u0000\u0000\u0000\u0000\u0000\u0000\u0000\u0000\u0000\u0000\u0000\u0000\u0000\u0000\u0000\u0000\u0000\u0000\u0000\u0000\u0000\u0000\u0000\u0000\u0000\u0000\u0000\u0000\u0000\u0000\u0000\u0000\u0000\u0000\u0000\u0000\u0000\u0000\u0000\u0000\u0000\u0000\u0000\u0000\u0000\u0000\u0000\u0000\u0000\u0000\u0000\u0000\u0000\u0000\u0000\u0000\u0000\u0000\u0000\u0000\u0000\u0000\u0000\u0000\u0000\u0000\u0000\u0000\u0000\u0000\u0000\u0000\u0000\u0000\u0000\u0000\u0000\u0000\u0000\u0000\u0000\u0000\u0000\u0000\u0000\u0000\u0000\u0000\u0000\u0000\u0000\u0000\u0000\u0000\u0000\u0000\u0000\u0000\u0000\u0000\u0000\u0000\u0000\u0000\u0000\u0000\u0000\u0000\u0000\u0000\u0000\u0000\u0000\u0000\u0000\u0000\u0000\u0000\u0000\u0000\u0000\u0000\u0000\u0000\u0000\u0000\u0000\u0000\u0000\u0000\u0000\u0000\u0000\u0000\u0000",
