{
  "AcquisitionMatrixPE": 70,
  "AcquisitionNumber": 1,
  "AcquisitionTime": "14:55:58.000000",
  "BandwidthPerPixelPhaseEncode": 51.948,
  "BaseResolution": 70,
  "BodyPartExamined": "HEAD",
  "CoilCombinationMethod": "Sum of Squares",
  "ConsistencyInfo": "N4_VE11C_LATEST_20160120",
  "ConversionSoftware": "dcm2niix",
  "ConversionSoftwareVersion": "v1.0.20220720",
  "DerivedVendorReportedEchoSpacing": 0.000550001,
  "DeviceSerialNumber": "66061",
  "DwellTime": 3.3e-06,
  "EchoTime": 0.022,
  "EchoTrainLength": 35,
  "EffectiveEchoSpacing": 0.000275,
  "FlipAngle": 90,
  "HeudiconvVersion": "1.1.1",
  "ImageOrientationPatientDICOM": [0.99988, 0.00354332, 0.0150767, -0.00122154, 0.988487, -0.151301],
  "ImageOrientationText": "Tra>Cor(-8.7)>Sag(0.9)",
  "ImageType": [
    "ORIGINAL",
    "PRIMARY",
    "M",
    "ND",
    "NORM",
    "MOSAIC"
],
  "ImagingFrequency": 123.255,
  "InPlanePhaseEncodingDirectionDICOM": "COL",
  "InstitutionAddress": "Street StreetNo,City/1c4204/,District,KR,ZIP",
  "InstitutionName": "SKKU",
  "InstitutionalDepartmentName": "Department",
  "MRAcquisitionType": "2D",
  "MagneticFieldStrength": 3,
  "Manufacturer": "Siemens",
  "ManufacturersModelName": "Prisma",
  "MatrixCoilMode": "GRAPPA",
  "Modality": "MR",
  "NonlinearGradientCorrection": false,
  "ParallelReductionFactorInPlane": 2,
  "PartialFourier": 1,
  "PatientPosition": "HFS",
  "PercentPhaseFOV": 100,
  "PercentSampling": 100,
  "PhaseEncodingDirection": "j-",
  "PhaseEncodingSteps": 70,
  "PhaseResolution": 1,
  "PixelBandwidth": 2165,
  "ProcedureStepDescription": "Head^PI:Others",
  "ProtocolName": "BOLD_ep2d_3x3x3_dimension1",
  "PulseSequenceDetails": "%SiemensSeq%\\ep2d_pace",
  "ReceiveCoilActiveElements": "HC1-6",
  "ReceiveCoilName": "HeadNeck_64",
  "ReconMatrixPE": 70,
  "RefLinesPE": 24,
  "RepetitionTime": 2,
  "SAR": 0.12146,
  "ScanOptions": "FS",
  "ScanningSequence": "EP",
  "SequenceName": "*epfid2d1_70",
  "SequenceVariant": "SK",
  "SeriesDescription": "BOLD_ep2d_3x3x3_dimension1",
  "SeriesNumber": 8,
  "ShimSetting": [5032, 3762, 4296, 8, -93, -83, -118, 38],
  "SliceThickness": 3,
  "SliceTiming": [0.99, 0, 1.0375, 0.0475, 1.085, 0.095, 1.13, 0.14, 1.1775, 0.1875, 1.225, 0.235, 1.2725, 0.2825, 1.32, 0.33, 1.3675, 0.3775, 1.415, 0.425, 1.46, 0.47, 1.5075, 0.5175, 1.555, 0.565, 1.6025, 0.6125, 1.65, 0.66, 1.6975, 0.7075, 1.745, 0.755, 1.79, 0.8, 1.8375, 0.8475, 1.885, 0.895, 1.9325, 0.9425],
  "SoftwareVersions": "syngo MR E11",
  "SpacingBetweenSlices": 3,
  "StationName": "AWP66061",
  "TaskName": "dimension",
  "TotalReadoutTime": 0.018975,
  "TxRefAmp": 220.742,
  "dcmmeta_affine": [
    [-2.9996402263641357, -0.003664624411612749, 0.046317823231220245, 103.62532806396484],
    [-0.010629965923726559, 2.965460777282715, -0.4537945091724396, -99.57878875732422],
    [0.045230232179164886, 0.4539042115211487, 2.965117931365967, -53.024620056152344],
    [0.0, 0.0, 0.0, 1.0]
],
  "dcmmeta_reorient_transform": [
    [0.0, -1.0, 0.0, 69.0],
    [1.0, 0.0, 0.0, 0.0],
    [0.0, 0.0, -1.0, 41.0],
    [0.0, 0.0, 0.0, 1.0]
],
  "dcmmeta_shape": [70, 70, 42, 437],
  "dcmmeta_slice_dim": 2,
  "dcmmeta_version": 0.6,
  "global": {
    "const": {
      "AcquisitionMatrix": [70, 0, 0, 70],
      "AngioFlag": "N",
      "BitsAllocated": 16,
      "BitsStored": 12,
      "BodyPartExamined": "HEAD",
      "Columns": 490,
      "EchoNumbers": 1,
      "EchoTime": 22.0,
      "EchoTrainLength": 35,
      "FlipAngle": 90.0,
      "HighBit": 11,
      "ImageOrientationPatient": [0.99988006113087, 0.00354332203475, 0.01507674440595, -0.0012215414594, 0.98848692155862, -0.1513014003373],
      "ImagePositionPatient": [-734.42636908025, -711.41148372558, 185.68614200699],
      "ImageType": [
        "ORIGINAL",
        "PRIMARY",
        "M",
        "ND",
        "NORM",
        "MOSAIC"
],
      "ImagedNucleus": "1H",
      "ImagingFrequency": 123.254584,
      "InPlanePhaseEncodingDirection": "COL",
      "MRAcquisitionType": "2D",
      "MagneticFieldStrength": 3.0,
      "Manufacturer": "SIEMENS",
      "ManufacturerModelName": "Prisma",
      "Modality": "MR",
      "NumberOfAverages": 1.0,
      "NumberOfPhaseEncodingSteps": 70,
      "PercentPhaseFieldOfView": 100.0,
      "PercentSampling": 100.0,
      "PerformedProcedureStepStartTime": "141155.427000",
      "PhotometricInterpretation": "MONOCHROME2",
      "PixelBandwidth": 2165.0,
      "PixelRepresentation": 0,
      "PixelSpacing": [3.0, 3.0],
      "ProtocolName": "BOLD_ep2d_3x3x3_dimension1",
      "RepetitionTime": 2000.0,
      "Rows": 490,
      "SAR": 0.1214596820256,
      "SamplesPerPixel": 1,
      "ScanOptions": "FS",
      "ScanningSequence": "EP",
      "SequenceName": "*epfid2d1_70",
      "SequenceVariant": "SK",
      "SeriesDescription": "BOLD_ep2d_3x3x3_dimension1",
      "SeriesNumber": 8,
      "SeriesTime": "145639.865000",
      "SliceLocation": 87.254580341944,
      "SliceThickness": 3.0,
      "SmallestImagePixelValue": 0,
      "SoftwareVersions": "syngo MR E11",
      "SpacingBetweenSlices": 2.9999999641324,
      "SpecificCharacterSet": "ISO_IR 100",
      "StudyID": "1",
      "StudyTime": "141155.365000",
      "TransmitCoilName": "Body",
      "VariableFlipAngleFlag": "N",
      "WindowCenterWidthExplanation": "Algo1",
      "dBdt": 0.0},
    "slices": {}
  },
  "time": {
    "samples": {
      "AcquisitionNumber": [1, 2, 3, 4, 5, 6, 7, 8, 9, 10, 11, 12, 13, 14, 15, 16, 17, 18, 19, 20, 21, 22, 23, 24, 25, 26, 27, 28, 29, 30, 31, 32, 33, 34, 35, 36, 37, 38, 39, 40, 41, 42, 43, 44, 45, 46, 47, 48, 49, 50, 51, 52, 53, 54, 55, 56, 57, 58, 59, 60, 61, 62, 63, 64, 65, 66, 67, 68, 69, 70, 71, 72, 73, 74, 75, 76, 77, 78, 79, 80, 81, 82, 83, 84, 85, 86, 87, 88, 89, 90, 91, 92, 93, 94, 95, 96, 97, 98, 99, 100, 101, 102, 103, 104, 105, 106, 107, 108, 109, 110, 111, 112, 113, 114, 115, 116, 117, 118, 119, 120, 121, 122, 123, 124, 125, 126, 127, 128, 129, 130, 131, 132, 133, 134, 135, 136, 137, 138, 139, 140, 141, 142, 143, 144, 145, 146, 147, 148, 149, 150, 151, 152, 153, 154, 155, 156, 157, 158, 159, 160, 161, 162, 163, 164, 165, 166, 167, 168, 169, 170, 171, 172, 173, 174, 175, 176, 177, 178, 179, 180, 181, 182, 183, 184, 185, 186, 187, 188, 189, 190, 191, 192, 193, 194, 195, 196, 197, 198, 199, 200, 201, 202, 203, 204, 205, 206, 207, 208, 209, 210, 211, 212, 213, 214, 215, 216, 217, 218, 219, 220, 221, 222, 223, 224, 225, 226, 227, 228, 229, 230, 231, 232, 233, 234, 235, 236, 237, 238, 239, 240, 241, 242, 243, 244, 245, 246, 247, 248, 249, 250, 251, 252, 253, 254, 255, 256, 257, 258, 259, 260, 261, 262, 263, 264, 265, 266, 267, 268, 269, 270, 271, 272, 273, 274, 275, 276, 277, 278, 279, 280, 281, 282, 283, 284, 285, 286, 287, 288, 289, 290, 291, 292, 293, 294, 295, 296, 297, 298, 299, 300, 301, 302, 303, 304, 305, 306, 307, 308, 309, 310, 311, 312, 313, 314, 315, 316, 317, 318, 319, 320, 321, 322, 323, 324, 325, 326, 327, 328, 329, 330, 331, 332, 333, 334, 335, 336, 337, 338, 339, 340, 341, 342, 343, 344, 345, 346, 347, 348, 349, 350, 351, 352, 353, 354, 355, 356, 357, 358, 359, 360, 361, 362, 363, 364, 365, 366, 367, 368, 369, 370, 371, 372, 373, 374, 375, 376, 377, 378, 379, 380, 381, 382, 383, 384, 385, 386, 387, 388, 389, 390, 391, 392, 393, 394, 395, 396, 397, 398, 399, 400, 401, 402, 403, 404, 405, 406, 407, 408, 409, 410, 411, 412, 413, 414, 415, 416, 417, 418, 419, 420, 421, 422, 423, 424, 425, 426, 427, 428, 429, 430, 431, 432, 433, 434, 435, 436, 437],
      "AcquisitionTime": ["145558.000000", "145600.000000", "145602.000000", "145604.000000", "145606.000000", "145608.000000", "145610.000000", "145612.000000", "145614.000000", "145616.000000", "145618.000000", "145620.000000", "145622.000000", "145624.000000", "145626.000000", "145628.000000", "145630.000000", "145632.000000", "145634.000000", "145636.000000", "145638.000000", "145640.000000", "145642.000000", "145644.000000", "145646.000000", "145648.000000", "145650.000000", "145652.000000", "145654.000000", "145656.000000", "145658.000000", "145700.000000", "145702.000000", "145704.000000", "145706.000000", "145708.000000", "145710.000000", "145712.000000", "145714.000000", "145716.000000", "145718.000000", "145720.000000", "145722.000000", "145724.000000", "145726.000000", "145728.000000", "145730.000000", "145732.000000", "145734.000000", "145736.000000", "145738.000000", "145740.000000", "145742.000000", "145744.000000", "145746.000000", "145748.000000", "145750.000000", "145752.000000", "145754.000000", "145756.000000", "145758.000000", "145800.000000", "145802.000000", "145804.000000", "145806.000000", "145808.000000", "145810.000000", "145812.000000", "145814.000000", "145816.000000", "145818.000000", "145820.000000", "145822.000000", "145824.000000", "145826.000000", "145828.000000", "145830.000000", "145832.000000", "145834.000000", "145836.000000", "145838.000000", "145840.000000", "145842.000000", "145844.000000", "145846.000000", "145848.000000", "145850.000000", "145852.000000", "145854.000000", "145856.000000", "145858.000000", "145900.000000", "145902.000000", "145904.000000", "145906.000000", "145908.000000", "145910.000000", "145912.000000", "145914.000000", "145916.000000", "145918.000000", "145920.000000", "145922.000000", "145924.000000", "145926.000000", "145928.000000", "145930.000000", "145932.000000", "145934.000000", "145936.000000", "145938.000000", "145940.000000", "145942.000000", "145944.000000", "145946.000000", "145948.000000", "145950.000000", "145952.000000", "145954.000000", "145956.000000", "145958.000000", "150000.000000", "150002.000000", "150004.000000", "150006.000000", "150008.000000", "150010.000000", "150012.000000", "150014.000000", "150016.000000", "150018.000000", "150020.000000", "150022.000000", "150024.000000", "150026.000000", "150028.000000", "150030.000000", "150032.000000", "150034.000000", "150036.000000", "150038.000000", "150040.000000", "150042.000000", "150044.000000", "150046.000000", "150048.000000", "150050.000000", "150052.000000", "150054.000000", "150056.000000", "150058.000000", "150100.000000", "150102.000000", "150104.000000", "150106.000000", "150108.000000", "150110.000000", "150112.000000", "150114.000000", "150116.000000", "150118.000000", "150120.000000", "150122.000000", "150124.000000", "150126.000000", "150128.000000", "150130.000000", "150132.000000", "150134.000000", "150136.000000", "150138.000000", "150140.000000", "150142.000000", "150144.000000", "150146.000000", "150148.000000", "150150.000000", "150152.000000", "150154.000000", "150156.000000", "150158.000000", "150200.000000", "150202.000000", "150204.000000", "150206.000000", "150208.000000", "150210.000000", "150212.000000", "150214.000000", "150216.000000", "150218.000000", "150220.000000", "150222.000000", "150224.000000", "150226.000000", "150228.000000", "150230.000000", "150232.000000", "150234.000000", "150236.000000", "150238.000000", "150240.000000", "150242.000000", "150244.000000", "150246.000000", "150248.000000", "150250.000000", "150252.000000", "150254.000000", "150256.000000", "150258.000000", "150300.000000", "150302.000000", "150304.000000", "150306.000000", "150308.000000", "150310.000000", "150312.000000", "150314.000000", "150316.000000", "150318.000000", "150320.000000", "150322.000000", "150324.000000", "150326.000000", "150328.000000", "150330.000000", "150332.000000", "150334.000000", "150336.000000", "150338.000000", "150340.000000", "150342.000000", "150344.000000", "150346.000000", "150348.000000", "150350.000000", "150352.000000", "150354.000000", "150356.000000", "150358.000000", "150400.000000", "150402.000000", "150404.000000", "150406.000000", "150408.000000", "150410.000000", "150412.000000", "150414.000000", "150416.000000", "150418.000000", "150420.000000", "150422.000000", "150424.000000", "150426.000000", "150428.000000", "150430.000000", "150432.000000", "150434.000000", "150436.000000", "150438.000000", "150440.000000", "150442.000000", "150444.000000", "150446.000000", "150448.000000", "150450.000000", "150452.000000", "150454.000000", "150456.000000", "150458.000000", "150500.000000", "150502.000000", "150504.000000", "150506.000000", "150508.000000", "150510.000000", "150512.000000", "150514.000000", "150516.000000", "150518.000000", "150520.000000", "150522.000000", "150524.000000", "150526.000000", "150528.000000", "150530.000000", "150532.000000", "150534.000000", "150536.000000", "150538.000000", "150540.000000", "150542.000000", "150544.000000", "150546.000000", "150548.000000", "150550.000000", "150552.000000", "150554.000000", "150556.000000", "150558.000000", "150600.000000", "150602.000000", "150604.000000", "150606.000000", "150608.000000", "150610.000000", "150612.000000", "150614.000000", "150616.000000", "150618.000000", "150620.000000", "150622.000000", "150624.000000", "150626.000000", "150628.000000", "150630.000000", "150632.000000", "150634.000000", "150636.000000", "150638.000000", "150640.000000", "150642.000000", "150644.000000", "150646.000000", "150648.000000", "150650.000000", "150652.000000", "150654.000000", "150656.000000", "150658.000000", "150700.000000", "150702.000000", "150704.000000", "150706.000000", "150708.000000", "150710.000000", "150712.000000", "150714.000000", "150716.000000", "150718.000000", "150720.000000", "150722.000000", "150724.000000", "150726.000000", "150728.000000", "150730.000000", "150732.000000", "150734.000000", "150736.000000", "150738.000000", "150740.000000", "150742.000000", "150744.000000", "150746.000000", "150748.000000", "150750.000000", "150752.000000", "150754.000000", "150756.000000", "150758.000000", "150800.000000", "150802.000000", "150804.000000", "150806.000000", "150808.000000", "150810.000000", "150812.000000", "150814.000000", "150816.000000", "150818.000000", "150820.000000", "150822.000000", "150824.000000", "150826.000000", "150828.000000", "150830.000000", "150832.000000", "150834.000000", "150836.000000", "150838.000000", "150840.000000", "150842.000000", "150844.000000", "150846.000000", "150848.000000", "150850.000000", "150852.000000", "150854.000000", "150856.000000", "150858.000000", "150900.000000", "150902.000000", "150904.000000", "150906.000000", "150908.000000", "150910.000000", "150912.000000", "150914.000000", "150916.000000", "150918.000000", "150920.000000", "150922.000000", "150924.000000", "150926.000000", "150928.000000", "150930.000000", "150932.000000", "150934.000000", "150936.000000", "150938.000000", "150940.000000", "150942.000000", "150944.000000", "150946.000000", "150948.000000", "150950.000000", "150952.000000", "150954.000000", "150956.000000", "150958.000000", "151000.000000", "151002.000000", "151004.000000", "151006.000000", "151008.000000", "151010.000000", "151012.000000", "151014.000000", "151016.000000", "151018.000000", "151020.000000", "151022.000000", "151024.000000", "151026.000000", "151028.000000", "151030.000000"],
      "ContentTime": ["145639.868000", "145639.872000", "145639.875000", "145639.885000", "145639.888000", "145639.891000", "145639.893000", "145639.896000", "145639.899000", "145639.902000", "145639.904000", "145639.907000", "145639.910000", "145639.913000", "145639.916000", "145639.918000", "145639.921000", "145639.928000", "145639.930000", "145639.933000", "145639.936000", "145719.865000", "145719.868000", "145719.870000", "145719.883000", "145719.886000", "145719.889000", "145719.892000", "145719.894000", "145719.897000", "145719.900000", "145719.903000", "145719.906000", "145719.909000", "145719.911000", "145719.914000", "145719.917000", "145719.920000", "145719.923000", "145719.925000", "145719.928000", "145759.865000", "145759.868000", "145759.870000", "145759.873000", "145759.876000", "145759.879000", "145759.882000", "145759.884000", "145759.887000", "145759.890000", "145759.893000", "145759.895000", "145759.898000", "145759.902000", "145759.912000", "145759.915000", "145759.917000", "145759.920000", "145759.923000", "145759.926000", "145839.864000", "145839.867000", "145839.869000", "145839.872000", "145839.875000", "145839.878000", "145839.881000", "145839.883000", "145839.886000", "145839.889000", "145839.892000", "145839.894000", "145839.897000", "145839.900000", "145839.903000", "145839.906000", "145839.908000", "145839.911000", "145839.914000", "145839.917000", "145919.864000", "145919.867000", "145919.870000", "145919.872000", "145919.875000", "145919.878000", "145919.881000", "145919.883000", "145919.886000", "145919.889000", "145919.892000", "145919.894000", "145919.897000", "145919.901000", "145919.904000", "145919.907000", "145919.909000", "145919.912000", "145919.915000", "145919.918000", "145959.865000", "145959.868000", "145959.871000", "145959.873000", "145959.881000", "145959.884000", "145959.887000", "145959.890000", "145959.892000", "145959.895000", "145959.899000", "145959.902000", "145959.905000", "145959.908000", "145959.910000", "145959.913000", "145959.916000", "145959.919000", "145959.921000", "145959.924000", "150039.865000", "150039.868000", "150039.871000", "150039.873000", "150039.876000", "150039.879000", "150039.882000", "150039.885000", "150039.888000", "150039.890000", "150039.893000", "150039.896000", "150039.899000", "150039.902000", "150039.905000", "150039.917000", "150039.919000", "150039.922000", "150039.925000", "150039.928000", "150119.864000", "150119.867000", "150119.870000", "150119.873000", "150119.875000", "150119.878000", "150119.881000", "150119.884000", "150119.887000", "150119.889000", "150119.892000", "150119.895000", "150119.898000", "150119.901000", "150119.904000", "150119.906000", "150119.909000", "150119.912000", "150119.915000", "150119.918000", "150159.865000", "150159.878000", "150159.881000", "150159.883000", "150159.886000", "150159.889000", "150159.892000", "150159.895000", "150159.898000", "150159.901000", "150159.903000", "150159.906000", "150159.909000", "150159.912000", "150159.914000", "150159.917000", "150159.920000", "150159.923000", "150159.926000", "150159.928000", "150239.865000", "150239.868000", "150239.871000", "150239.873000", "150239.876000", "150239.879000", "150239.882000", "150239.885000", "150239.888000", "150239.890000", "150239.893000", "150239.896000", "150239.899000", "150239.902000", "150239.904000", "150239.907000", "150239.910000", "150239.913000", "150239.916000", "150239.918000", "150319.864000", "150319.867000", "150319.870000", "150319.872000", "150319.875000", "150319.878000", "150319.881000", "150319.884000", "150319.887000", "150319.897000", "150319.900000", "150319.902000", "150319.905000", "150319.908000", "150319.911000", "150319.914000", "150319.916000", "150319.919000", "150319.922000", "150319.925000", "150359.864000", "150359.867000", "150359.870000", "150359.872000", "150359.875000", "150359.878000", "150359.881000", "150359.884000", "150359.887000", "150359.891000", "150359.894000", "150359.896000", "150359.903000", "150359.905000", "150359.908000", "150359.911000", "150359.914000", "150359.917000", "150359.919000", "150359.922000", "150439.865000", "150439.868000", "150439.871000", "150439.873000", "150439.876000", "150439.879000", "150439.882000", "150439.885000", "150439.887000", "150439.890000", "150439.893000", "150439.896000", "150439.899000", "150439.902000", "150439.905000", "150439.907000", "150439.910000", "150439.913000", "150439.916000", "150439.919000", "150519.865000", "150519.868000", "150519.871000", "150519.873000", "150519.876000", "150519.879000", "150519.882000", "150519.885000", "150519.893000", "150519.896000", "150519.899000", "150519.902000", "150519.904000", "150519.907000", "150519.910000", "150519.913000", "150519.916000", "150519.919000", "150519.921000", "150519.924000", "150559.864000", "150559.867000", "150559.870000", "150559.872000", "150559.875000", "150559.878000", "150559.890000", "150559.893000", "150559.896000", "150559.898000", "150559.901000", "150559.904000", "150559.907000", "150559.909000", "150559.912000", "150559.915000", "150559.918000", "150559.921000", "150559.923000", "150559.926000", "150639.865000", "150639.868000", "150639.871000", "150639.874000", "150639.876000", "150639.879000", "150639.882000", "150639.885000", "150639.888000", "150639.890000", "150639.893000", "150639.896000", "150639.899000", "150639.902000", "150639.904000", "150639.907000", "150639.910000", "150639.913000", "150639.916000", "150639.918000", "150719.865000", "150719.868000", "150719.871000", "150719.873000", "150719.876000", "150719.879000", "150719.882000", "150719.885000", "150719.888000", "150719.891000", "150719.894000", "150719.897000", "150719.900000", "150719.903000", "150719.905000", "150719.908000", "150719.911000", "150719.914000", "150719.917000", "150719.920000", "150759.864000", "150759.867000", "150759.870000", "150759.872000", "150759.875000", "150759.878000", "150759.881000", "150759.885000", "150759.888000", "150759.891000", "150759.893000", "150759.896000", "150759.899000", "150759.902000", "150759.904000", "150759.907000", "150759.910000", "150759.913000", "150759.916000", "150759.918000", "150839.864000", "150839.867000", "150839.870000", "150839.873000", "150839.875000", "150839.878000", "150839.881000", "150839.884000", "150839.887000", "150839.890000", "150839.892000", "150839.895000", "150839.898000", "150839.917000", "150839.920000", "150839.923000", "150839.925000", "150839.928000", "150839.931000", "150839.934000", "150919.865000", "150919.868000", "150919.870000", "150919.873000", "150919.876000", "150919.880000", "150919.883000", "150919.886000", "150919.888000", "150919.891000", "150919.894000", "150919.897000", "150919.900000", "150919.903000", "150919.905000", "150919.908000", "150919.911000", "150919.914000", "150919.917000", "150919.919000", "150959.865000", "150959.868000", "150959.871000", "150959.874000", "150959.876000", "150959.879000", "150959.882000", "150959.885000", "150959.888000", "150959.891000", "150959.893000", "150959.896000", "150959.899000", "150959.902000", "150959.905000", "150959.907000", "150959.910000", "150959.913000", "150959.916000", "150959.919000", "151031.488000", "151031.492000", "151031.495000", "151031.497000", "151031.500000", "151031.503000", "151031.506000", "151031.509000", "151031.512000", "151031.515000", "151031.518000", "151031.520000", "151031.523000", "151031.526000", "151031.530000", "151031.533000"],
      "DataSetTrailingPadding": [
        "\u0000\u0000\u0000\u0000\u0000\u0000\u0000\u0000\u0000\u0000\u0000\u0000\u0000\u0000\u0000\u0000\u0000\u0000\u0000\u0000\u0000\u0000\u0000\u0000\u0000\u0000\u0000\u0000\u0000\u0000\u0000\u0000\u0000\u0000\u0000\u0000\u0000\u0000\u0000\u0000\u0000\u0000\u0000\u0000\u0000\u0000\u0000\u0000\u0000\u0000\u0000\u0000\u0000\u0000\u0000\u0000\u0000\u0000\u0000\u0000\u0000\u0000\u0000\u0000\u0000\u0000\u0000\u0000\u0000\u0000\u0000\u0000\u0000\u0000\u0000\u0000\u0000\u0000\u0000\u0000\u0000\u0000\u0000\u0000\u0000\u0000\u0000\u0000\u0000\u0000\u0000\u0000\u0000\u0000\u0000\u0000\u0000\u0000\u0000\u0000\u0000\u0000\u0000\u0000\u0000\u0000\u0000\u0000\u0000\u0000\u0000\u0000\u0000\u0000\u0000\u0000\u0000\u0000\u0000\u0000\u0000\u0000\u0000\u0000\u0000\u0000\u0000\u0000\u0000\u0000\u0000\u0000\u0000\u0000\u0000\u0000\u0000\u0000\u0000\u0000\u0000\u0000\u0000\u0000\u0000\u0000\u0000\u0000\u0000\u0000\u0000\u0000\u0000\u0000\u0000\u0000\u0000\u0000\u0000\u0000\u0000\u0000\u0000\u0000\u0000\u0000\u0000\u0000\u0000\u0000\u0000\u0000\u0000\u0000\u0000\u0000\u0000\u0000\u0000\u0000\u0000\u0000\u0000\u0000\u0000\u0000\u0000\u0000\u0000\u0000\u0000\u0000\u0000\u0000\u0000\u0000\u0000\u0000\u0000\u0000\u0000\u0000\u0000\u0000\u0000\u0000\u0000\u0000\u0000\u0000\u0000\u0000\u0000\u0000\u0000\u0000\u0000\u0000\u0000\u0000\u0000\u0000\u0000\u0000\u0000\u0000\u0000\u0000\u0000\u0000\u0000\u0000\u0000\u0000\u0000\u0000\u0000\u0000\u0000\u0000\u0000\u0000\u0000\u0000\u0000\u0000\u0000\u0000\u0000\u0000\u0000\u0000\u0000\u0000\u0000\u0000\u0000\u0000\u0000\u0000\u0000\u0000\u0000\u0000\u0000\u0000\u0000\u0000\u0000\u0000\u0000\u0000\u0000\u0000\u0000\u0000\u0000\u0000\u0000\u0000\u0000\u0000\u0000\u0000\u0000\u0000\u0000\u0000\u0000\u0000\u0000\u0000\u0000\u0000\u0000\u0000\u0000\u0000\u0000\u0000\u0000\u0000\u0000\u0000\u0000\u0000\u0000\u0000\u0000\u0000\u0000\u0000\u0000\u0000\u0000\u0000\u0000\u0000\u0000\u0000\u0000\u0000\u0000\u0000\u0000\u0000",
        "\u0000\u0000\u0000\u0000\u0000\u0000\u0000\u0000\u0000\u0000\u0000\u0000\u0000\u0000\u0000\u0000\u0000\u0000\u0000\u0000\u0000\u0000\u0000\u0000\u0000\u0000\u0000\u0000\u0000\u0000\u0000\u0000\u0000\u0000\u0000\u0000\u0000\u0000\u0000\u0000\u0000\u0000\u0000\u0000\u0000\u0000\u0000\u0000\u0000\u0000\u0000\u0000\u0000\u0000\u0000\u0000\u0000\u0000\u0000\u0000\u0000\u0000\u0000\u0000\u0000\u0000\u0000\u0000\u0000\u0000\u0000\u0000\u0000\u0000\u0000\u0000\u0000\u0000\u0000\u0000\u0000\u0000\u0000\u0000\u0000\u0000\u0000\u0000\u0000\u0000\u0000\u0000\u0000\u0000\u0000\u0000\u0000\u0000\u0000\u0000\u0000\u0000\u0000\u0000\u0000\u0000\u0000\u0000\u0000\u0000\u0000\u0000\u0000\u0000\u0000\u0000\u0000\u0000\u0000\u0000\u0000\u0000\u0000\u0000\u0000\u0000\u0000\u0000\u0000\u0000\u0000\u0000\u0000\u0000\u0000\u0000\u0000\u0000\u0000\u0000\u0000\u0000\u0000\u0000\u0000\u0000\u0000\u0000\u0000\u0000\u0000\u0000\u0000\u0000\u0000\u0000\u0000\u0000\u0000\u0000\u0000\u0000\u0000\u0000\u0000\u0000\u0000\u0000\u0000\u0000\u0000\u0000\u0000\u0000\u0000\u0000\u0000\u0000\u0000\u0000\u0000\u0000\u0000\u0000\u0000\u0000\u0000\u0000\u0000\u0000\u0000\u0000\u0000\u0000\u0000\u0000\u0000\u0000\u0000\u0000\u0000\u0000\u0000\u0000\u0000\u0000\u0000\u0000\u0000\u0000\u0000\u0000\u0000\u0000\u0000\u0000\u0000\u0000\u0000\u0000\u0000\u0000\u0000\u0000\u0000\u0000\u0000\u0000\u0000\u0000\u0000\u0000\u0000\u0000\u0000\u0000\u0000\u0000\u0000\u0000\u0000\u0000\u0000\u0000\u0000\u0000\u0000\u0000\u0000\u0000\u0000\u0000\u0000\u0000\u0000\u0000\u0000\u0000\u0000\u0000\u0000\u0000\u0000\u0000\u0000\u0000\u0000\u0000\u0000\u0000\u0000\u0000\u0000\u0000\u0000\u0000\u0000\u0000\u0000\u0000\u0000\u0000\u0000\u0000\u0000\u0000\u0000\u0000\u0000\u0000\u0000\u0000\u0000\u0000\u0000\u0000\u0000\u0000\u0000\u0000\u0000\u0000\u0000\u0000\u0000\u0000\u0000\u0000\u0000\u0000\u0000\u0000\u0000\u0000\u0000\u0000\u0000\u0000\u0000\u0000\u0000\u0000\u0000\u0000\u0000\u0000",
        "\u0000\u0000\u0000\u0000\u0000\u0000\u0000\u0000\u0000\u0000\u0000\u0000\u0000\u0000\u0000\u0000\u0000\u0000\u0000\u0000\u0000\u0000\u0000\u0000\u0000\u0000\u0000\u0000\u0000\u0000\u0000\u0000\u0000\u0000\u0000\u0000\u0000\u0000\u0000\u0000\u0000\u0000\u0000\u0000\u0000\u0000\u0000\u0000\u0000\u0000\u0000\u0000\u0000\u0000\u0000\u0000\u0000\u0000\u0000\u0000\u0000\u0000\u0000\u0000\u0000\u0000\u0000\u0000\u0000\u0000\u0000\u0000\u0000\u0000\u0000\u0000\u0000\u0000\u0000\u0000\u0000\u0000\u0000\u0000\u0000\u0000\u0000\u0000\u0000\u0000\u0000\u0000\u0000\u0000\u0000\u0000\u0000\u0000\u0000\u0000\u0000\u0000\u0000\u0000\u0000\u0000\u0000\u0000\u0000\u0000\u0000\u0000\u0000\u0000\u0000\u0000\u0000\u0000\u0000\u0000\u0000\u0000\u0000\u0000\u0000\u0000\u0000\u0000\u0000\u0000\u0000\u0000\u0000\u0000\u0000\u0000\u0000\u0000\u0000\u0000\u0000\u0000\u0000\u0000\u0000\u0000\u0000\u0000\u0000\u0000\u0000\u0000\u0000\u0000\u0000\u0000\u0000\u0000\u0000\u0000\u0000\u0000\u0000\u0000\u0000\u0000\u0000\u0000\u0000\u0000\u0000\u0000\u0000\u0000\u0000\u0000\u0000\u0000\u0000\u0000\u0000\u0000\u0000\u0000\u0000\u0000\u0000\u0000\u0000\u0000\u0000\u0000\u0000\u0000\u0000\u0000\u0000\u0000\u0000\u0000\u0000\u0000\u0000\u0000\u0000\u0000\u0000\u0000\u0000\u0000\u0000\u0000\u0000\u0000\u0000\u0000\u0000\u0000\u0000\u0000\u0000\u0000\u0000\u0000\u0000\u0000\u0000\u0000\u0000\u0000\u0000\u0000\u0000\u0000\u0000\u0000\u0000\u0000\u0000\u0000\u0000\u0000\u0000\u0000\u0000\u0000\u0000\u0000\u0000\u0000\u0000\u0000\u0000\u0000\u0000\u0000\u0000\u0000\u0000\u0000\u0000\u0000\u0000\u0000\u0000\u0000\u0000\u0000\u0000\u0000\u0000\u0000\u0000\u0000\u0000\u0000\u0000\u0000\u0000\u0000\u0000\u0000\u0000\u0000\u0000\u0000\u0000\u0000\u0000\u0000\u0000\u0000\u0000\u0000\u0000\u0000\u0000\u0000\u0000\u0000\u0000\u0000\u0000\u0000\u0000\u0000\u0000\u0000\u0000\u0000\u0000\u0000\u0000\u0000\u0000\u0000\u0000\u0000\u0000\u0000\u0000\u0000\u0000\u0000\u0000\u0000",
