{
  "AcquisitionMatrixPE": 70,
  "AcquisitionNumber": 1,
  "AcquisitionTime": "14:07:18.522500",
  "BandwidthPerPixelPhaseEncode": 51.948,
  "BaseResolution": 70,
  "BodyPartExamined": "HEAD",
  "CoilCombinationMethod": "Sum of Squares",
  "ConsistencyInfo": "N4_VE11C_LATEST_20160120",
  "ConversionSoftware": "dcm2niix",
  "ConversionSoftwareVersion": "v1.0.20220720",
  "DerivedVendorReportedEchoSpacing": 0.000550001,
  "DeviceSerialNumber": "66061",
  "DwellTime": 3.3e-06,
  "EchoTime": 0.022,
  "EchoTrainLength": 35,
  "EffectiveEchoSpacing": 0.000275,
  "FlipAngle": 90,
  "HeudiconvVersion": "1.1.1",
  "ImageOrientationPatientDICOM": [0.998093, 0.0125758, 0.0604365, -0.00121939, 0.982855, -0.184377],
  "ImageOrientationText": "Tra>Cor(-10.6)>Sag(3.5)",
  "ImageType": [
    "ORIGINAL",
    "PRIMARY",
    "M",
    "ND",
    "NORM",
    "MOSAIC"
],
  "ImagingFrequency": 123.254,
  "InPlanePhaseEncodingDirectionDICOM": "COL",
  "InstitutionAddress": "Street StreetNo,City/1c4204/,District,KR,ZIP",
  "InstitutionName": "SKKU",
  "InstitutionalDepartmentName": "Department",
  "MRAcquisitionType": "2D",
  "MagneticFieldStrength": 3,
  "Manufacturer": "Siemens",
  "ManufacturersModelName": "Prisma",
  "MatrixCoilMode": "GRAPPA",
  "Modality": "MR",
  "NonlinearGradientCorrection": false,
  "ParallelReductionFactorInPlane": 2,
  "PartialFourier": 1,
  "PatientPosition": "HFS",
  "PercentPhaseFOV": 100,
  "PercentSampling": 100,
  "PhaseEncodingDirection": "j-",
  "PhaseEncodingSteps": 70,
  "PhaseResolution": 1,
  "PixelBandwidth": 2165,
  "ProcedureStepDescription": "Head^PI:Others",
  "ProtocolName": "BOLD_ep2d_3x3x3_response2",
  "PulseSequenceDetails": "%SiemensSeq%\\ep2d_pace",
  "ReceiveCoilActiveElements": "HC1-7",
  "ReceiveCoilName": "HeadNeck_64",
  "ReconMatrixPE": 70,
  "RefLinesPE": 24,
  "RepetitionTime": 2,
  "SAR": 0.126295,
  "ScanOptions": "FS",
  "ScanningSequence": "EP",
  "SequenceName": "*epfid2d1_70",
  "SequenceVariant": "SK",
  "SeriesDescription": "BOLD_ep2d_3x3x3_response2",
  "SeriesNumber": 10,
  "ShimSetting": [5066, 3721, 4483, 363, -54, -80, -9, 54],
  "SliceThickness": 3,
  "SliceTiming": [0.99, 0, 1.0375, 0.0475, 1.085, 0.095, 1.13, 0.14, 1.1775, 0.1875, 1.225, 0.235, 1.2725, 0.2825, 1.32, 0.33, 1.3675, 0.3775, 1.415, 0.425, 1.46, 0.47, 1.5075, 0.5175, 1.555, 0.565, 1.6025, 0.6125, 1.65, 0.66, 1.6975, 0.7075, 1.745, 0.755, 1.79, 0.8, 1.8375, 0.8475, 1.885, 0.895, 1.9325, 0.9425],
  "SoftwareVersions": "syngo MR E11",
  "SpacingBetweenSlices": 3,
  "StationName": "AWP66061",
  "TaskName": "response",
  "TotalReadoutTime": 0.018975,
  "TxRefAmp": 213.616,
  "dcmmeta_affine": [
    [-2.9942784309387207, -0.0036581766325980425, 0.18515706062316895, 106.97344970703125],
    [-0.03772730007767677, 2.9485647678375244, -0.5518540740013123, -87.61192321777344],
    [0.18130959570407867, 0.553130030632019, 2.9429872035980225, -58.90238952636719],
    [0.0, 0.0, 0.0, 1.0]
],
  "dcmmeta_reorient_transform": [
    [0.0, -1.0, 0.0, 69.0],
    [1.0, 0.0, 0.0, 0.0],
    [0.0, 0.0, -1.0, 41.0],
    [0.0, 0.0, 0.0, 1.0]
],
  "dcmmeta_shape": [70, 70, 42, 341],
  "dcmmeta_slice_dim": 2,
  "dcmmeta_version": 0.6,
  "global": {
    "const": {
      "AcquisitionMatrix": [70, 0, 0, 70],
      "AngioFlag": "N",
      "BitsAllocated": 16,
      "BitsStored": 12,
      "BodyPartExamined": "HEAD",
      "Columns": 490,
      "EchoNumbers": 1,
      "EchoTime": 22.0,
      "EchoTrainLength": 35,
      "FlipAngle": 90.0,
      "HighBit": 11,
      "ImageOrientationPatient": [0.99809281925237, 0.01257576670599, 0.060436530746, -0.0012193922158, 0.98285489799882, -0.1843766866021],
      "ImagePositionPatient": [-742.34273501571, -720.33434098724, 178.00836044044],
      "ImageType": [
        "ORIGINAL",
        "PRIMARY",
        "M",
        "ND",
        "NORM",
        "MOSAIC"
],
      "ImagedNucleus": "1H",
      "ImagingFrequency": 123.254005,
      "InPlanePhaseEncodingDirection": "COL",
      "MRAcquisitionType": "2D",
      "MagneticFieldStrength": 3.0,
      "Manufacturer": "SIEMENS",
      "ManufacturerModelName": "Prisma",
      "Modality": "MR",
      "NumberOfAverages": 1.0,
      "NumberOfPhaseEncodingSteps": 70,
      "PercentPhaseFieldOfView": 100.0,
      "PercentSampling": 100.0,
      "PerformedProcedureStepStartTime": "130252.398000",
      "PhotometricInterpretation": "MONOCHROME2",
      "PixelBandwidth": 2165.0,
      "PixelRepresentation": 0,
      "PixelSpacing": [3.0, 3.0],
      "ProtocolName": "BOLD_ep2d_3x3x3_response2",
      "RepetitionTime": 2000.0,
      "Rows": 490,
      "SAR": 0.12629474355162,
      "SamplesPerPixel": 1,
      "ScanOptions": "FS",
      "ScanningSequence": "EP",
      "SequenceName": "*epfid2d1_70",
      "SequenceVariant": "SK",
      "SeriesDescription": "BOLD_ep2d_3x3x3_response2",
      "SeriesNumber": 10,
      "SeriesTime": "140800.641000",
      "SliceLocation": 87.935634904828,
      "SliceThickness": 3.0,
      "SmallestImagePixelValue": 0,
      "SoftwareVersions": "syngo MR E11",
      "SpacingBetweenSlices": 3.0000000465735,
      "SpecificCharacterSet": "ISO_IR 100",
      "StudyID": "1",
      "StudyTime": "130252.322000",
      "TransmitCoilName": "Body",
      "VariableFlipAngleFlag": "N",
      "WindowCenterWidthExplanation": "Algo1",
      "dBdt": 0.0},
    "slices": {}
  },
  "time": {
    "samples": {
      "AcquisitionNumber": [1, 2, 3, 4, 5, 6, 7, 8, 9, 10, 11, 12, 13, 14, 15, 16, 17, 18, 19, 20, 21, 22, 23, 24, 25, 26, 27, 28, 29, 30, 31, 32, 33, 34, 35, 36, 37, 38, 39, 40, 41, 42, 43, 44, 45, 46, 47, 48, 49, 50, 51, 52, 53, 54, 55, 56, 57, 58, 59, 60, 61, 62, 63, 64, 65, 66, 67, 68, 69, 70, 71, 72, 73, 74, 75, 76, 77, 78, 79, 80, 81, 82, 83, 84, 85, 86, 87, 88, 89, 90, 91, 92, 93, 94, 95, 96, 97, 98, 99, 100, 101, 102, 103, 104, 105, 106, 107, 108, 109, 110, 111, 112, 113, 114, 115, 116, 117, 118, 119, 120, 121, 122, 123, 124, 125, 126, 127, 128, 129, 130, 131, 132, 133, 134, 135, 136, 137, 138, 139, 140, 141, 142, 143, 144, 145, 146, 147, 148, 149, 150, 151, 152, 153, 154, 155, 156, 157, 158, 159, 160, 161, 162, 163, 164, 165, 166, 167, 168, 169, 170, 171, 172, 173, 174, 175, 176, 177, 178, 179, 180, 181, 182, 183, 184, 185, 186, 187, 188, 189, 190, 191, 192, 193, 194, 195, 196, 197, 198, 199, 200, 201, 202, 203, 204, 205, 206, 207, 208, 209, 210, 211, 212, 213, 214, 215, 216, 217, 218, 219, 220, 221, 222, 223, 224, 225, 226, 227, 228, 229, 230, 231, 232, 233, 234, 235, 236, 237, 238, 239, 240, 241, 242, 243, 244, 245, 246, 247, 248, 249, 250, 251, 252, 253, 254, 255, 256, 257, 258, 259, 260, 261, 262, 263, 264, 265, 266, 267, 268, 269, 270, 271, 272, 273, 274, 275, 276, 277, 278, 279, 280, 281, 282, 283, 284, 285, 286, 287, 288, 289, 290, 291, 292, 293, 294, 295, 296, 297, 298, 299, 300, 301, 302, 303, 304, 305, 306, 307, 308, 309, 310, 311, 312, 313, 314, 315, 316, 317, 318, 319, 320, 321, 322, 323, 324, 325, 326, 327, 328, 329, 330, 331, 332, 333, 334, 335, 336, 337, 338, 339, 340, 341],
      "AcquisitionTime": ["140718.522500", "140720.522500", "140722.522500", "140724.522500", "140726.522500", "140728.522500", "140730.522500", "140732.522500", "140734.522500", "140736.522500", "140738.522500", "140740.522500", "140742.522500", "140744.522500", "140746.522500", "140748.522500", "140750.522500", "140752.522500", "140754.522500", "140756.522500", "140758.522500", "140800.522500", "140802.522500", "140804.522500", "140806.522500", "140808.522500", "140810.522500", "140812.522500", "140814.522500", "140816.522500", "140818.522500", "140820.522500", "140822.522500", "140824.522500", "140826.522500", "140828.522500", "140830.522500", "140832.522500", "140834.522500", "140836.522500", "140838.522500", "140840.522500", "140842.522500", "140844.522500", "140846.522500", "140848.522500", "140850.522500", "140852.522500", "140854.522500", "140856.522500", "140858.522500", "140900.522500", "140902.522500", "140904.522500", "140906.522500", "140908.522500", "140910.522500", "140912.522500", "140914.522500", "140916.522500", "140918.522500", "140920.522500", "140922.522500", "140924.522500", "140926.522500", "140928.522500", "140930.522500", "140932.522500", "140934.522500", "140936.522500", "140938.522500", "140940.522500", "140942.522500", "140944.522500", "140946.522500", "140948.522500", "140950.522500", "140952.522500", "140954.522500", "140956.522500", "140958.522500", "141000.522500", "141002.522500", "141004.522500", "141006.522500", "141008.522500", "141010.522500", "141012.522500", "141014.522500", "141016.522500", "141018.522500", "141020.522500", "141022.522500", "141024.522500", "141026.522500", "141028.522500", "141030.522500", "141032.522500", "141034.522500", "141036.522500", "141038.522500", "141040.522500", "141042.522500", "141044.522500", "141046.522500", "141048.522500", "141050.522500", "141052.522500", "141054.522500", "141056.522500", "141058.522500", "141100.522500", "141102.522500", "141104.522500", "141106.522500", "141108.522500", "141110.522500", "141112.522500", "141114.522500", "141116.522500", "141118.522500", "141120.522500", "141122.522500", "141124.522500", "141126.522500", "141128.522500", "141130.522500", "141132.522500", "141134.522500", "141136.522500", "141138.522500", "141140.522500", "141142.522500", "141144.522500", "141146.522500", "141148.522500", "141150.522500", "141152.522500", "141154.522500", "141156.522500", "141158.522500", "141200.522500", "141202.522500", "141204.522500", "141206.522500", "141208.522500", "141210.522500", "141212.522500", "141214.522500", "141216.522500", "141218.522500", "141220.522500", "141222.522500", "141224.522500", "141226.522500", "141228.522500", "141230.522500", "141232.522500", "141234.522500", "141236.522500", "141238.522500", "141240.522500", "141242.522500", "141244.522500", "141246.522500", "141248.522500", "141250.522500", "141252.522500", "141254.522500", "141256.522500", "141258.522500", "141300.522500", "141302.522500", "141304.522500", "141306.522500", "141308.522500", "141310.522500", "141312.522500", "141314.522500", "141316.522500", "141318.522500", "141320.522500", "141322.522500", "141324.522500", "141326.522500", "141328.522500", "141330.522500", "141332.522500", "141334.522500", "141336.522500", "141338.522500", "141340.522500", "141342.522500", "141344.522500", "141346.522500", "141348.522500", "141350.522500", "141352.522500", "141354.522500", "141356.522500", "141358.522500", "141400.522500", "141402.522500", "141404.522500", "141406.522500", "141408.522500", "141410.522500", "141412.522500", "141414.522500", "141416.522500", "141418.522500", "141420.522500", "141422.522500", "141424.522500", "141426.522500", "141428.522500", "141430.522500", "141432.522500", "141434.522500", "141436.522500", "141438.522500", "141440.522500", "141442.522500", "141444.522500", "141446.522500", "141448.522500", "141450.522500", "141452.522500", "141454.522500", "141456.522500", "141458.522500", "141500.522500", "141502.522500", "141504.522500", "141506.522500", "141508.522500", "141510.522500", "141512.522500", "141514.522500", "141516.522500", "141518.522500", "141520.522500", "141522.522500", "141524.522500", "141526.522500", "141528.522500", "141530.522500", "141532.522500", "141534.522500", "141536.522500", "141538.522500", "141540.522500", "141542.522500", "141544.522500", "141546.522500", "141548.522500", "141550.522500", "141552.522500", "141554.522500", "141556.522500", "141558.522500", "141600.522500", "141602.522500", "141604.522500", "141606.522500", "141608.522500", "141610.522500", "141612.522500", "141614.522500", "141616.522500", "141618.522500", "141620.522500", "141622.522500", "141624.522500", "141626.522500", "141628.522500", "141630.522500", "141632.522500", "141634.522500", "141636.522500", "141638.522500", "141640.522500", "141642.522500", "141644.522500", "141646.522500", "141648.522500", "141650.522500", "141652.522500", "141654.522500", "141656.522500", "141658.522500", "141700.522500", "141702.522500", "141704.522500", "141706.522500", "141708.522500", "141710.522500", "141712.522500", "141714.522500", "141716.522500", "141718.522500", "141720.522500", "141722.522500", "141724.522500", "141726.522500", "141728.522500", "141730.522500", "141732.522500", "141734.522500", "141736.522500", "141738.522500", "141740.522500", "141742.522500", "141744.522500", "141746.522500", "141748.522500", "141750.522500", "141752.522500", "141754.522500", "141756.522500", "141758.522500", "141800.522500", "141802.522500", "141804.522500", "141806.522500", "141808.522500", "141810.522500", "141812.522500", "141814.522500", "141816.522500", "141818.522500", "141820.522500", "141822.522500", "141824.522500", "141826.522500", "141828.522500", "141830.522500", "141832.522500", "141834.522500", "141836.522500", "141838.522500"],
      "ContentTime": ["140800.644000", "140800.648000", "140800.651000", "140800.661000", "140800.669000", "140800.672000", "140800.674000", "140800.677000", "140800.680000", "140800.682000", "140800.685000", "140800.688000", "140800.690000", "140800.693000", "140800.696000", "140800.698000", "140800.708000", "140800.721000", "140800.723000", "140800.726000", "140800.729000", "140840.641000", "140840.644000", "140840.647000", "140840.649000", "140840.652000", "140840.655000", "140840.657000", "140840.660000", "140840.662000", "140840.665000", "140840.668000", "140840.670000", "140840.673000", "140840.676000", "140840.679000", "140840.681000", "140840.684000", "140840.687000", "140840.689000", "140840.692000", "140920.641000", "140920.644000", "140920.646000", "140920.649000", "140920.652000", "140920.654000", "140920.657000", "140920.664000", "140920.667000", "140920.669000", "140920.672000", "140920.675000", "140920.677000", "140920.680000", "140920.683000", "140920.685000", "140920.688000", "140920.691000", "140920.693000", "140920.696000", "141000.640000", "141000.643000", "141000.645000", "141000.648000", "141000.651000", "141000.653000", "141000.656000", "141000.659000", "141000.661000", "141000.664000", "141000.667000", "141000.669000", "141000.672000", "141000.675000", "141000.678000", "141000.680000", "141000.683000", "141000.686000", "141000.688000", "141000.691000", "141040.641000", "141040.644000", "141040.646000", "141040.649000", "141040.652000", "141040.654000", "141040.657000", "141040.660000", "141040.662000", "141040.665000", "141040.668000", "141040.670000", "141040.673000", "141040.676000", "141040.678000", "141040.681000", "141040.683000", "141040.686000", "141040.689000", "141040.691000", "141120.641000", "141120.644000", "141120.647000", "141120.649000", "141120.652000", "141120.655000", "141120.657000", "141120.660000", "141120.662000", "141120.665000", "141120.668000", "141120.670000", "141120.673000", "141120.676000", "141120.678000", "141120.681000", "141120.684000", "141120.686000", "141120.689000", "141120.692000", "141200.641000", "141200.644000", "141200.646000", "141200.649000", "141200.652000", "141200.654000", "141200.657000", "141200.660000", "141200.662000", "141200.665000", "141200.668000", "141200.670000", "141200.673000", "141200.676000", "141200.678000", "141200.681000", "141200.684000", "141200.692000", "141200.695000", "141200.697000", "141240.640000", "141240.643000", "141240.645000", "141240.648000", "141240.651000", "141240.653000", "141240.656000", "141240.658000", "141240.661000", "141240.664000", "141240.666000", "141240.669000", "141240.672000", "141240.674000", "141240.677000", "141240.680000", "141240.682000", "141240.685000", "141240.688000", "141240.690000", "141320.641000", "141320.644000", "141320.646000", "141320.649000", "141320.652000", "141320.654000", "141320.657000", "141320.660000", "141320.662000", "141320.665000", "141320.668000", "141320.670000", "141320.673000", "141320.676000", "141320.678000", "141320.681000", "141320.684000", "141320.686000", "141320.689000", "141320.692000", "141400.641000", "141400.644000", "141400.646000", "141400.649000", "141400.652000", "141400.654000", "141400.657000", "141400.660000", "141400.662000", "141400.665000", "141400.668000", "141400.670000", "141400.673000", "141400.675000", "141400.678000", "141400.681000", "141400.684000", "141400.686000", "141400.689000", "141400.692000", "141440.640000", "141440.643000", "141440.645000", "141440.648000", "141440.651000", "141440.653000", "141440.656000", "141440.659000", "141440.661000", "141440.664000", "141440.667000", "141440.669000", "141440.672000", "141440.675000", "141440.677000", "141440.680000", "141440.682000", "141440.685000", "141440.688000", "141440.691000", "141520.641000", "141520.644000", "141520.646000", "141520.649000", "141520.652000", "141520.654000", "141520.657000", "141520.660000", "141520.662000", "141520.665000", "141520.668000", "141520.670000", "141520.673000", "141520.676000", "141520.678000", "141520.681000", "141520.684000", "141520.686000", "141520.689000", "141520.692000", "141540.641000", "141540.644000", "141540.647000", "141540.649000", "141540.652000", "141540.654000", "141540.657000", "141540.660000", "141540.662000", "141540.665000", "141620.641000", "141620.644000", "141620.646000", "141620.649000", "141620.652000", "141620.654000", "141620.657000", "141620.660000", "141620.662000", "141620.665000", "141620.668000", "141620.670000", "141620.673000", "141620.676000", "141620.678000", "141620.681000", "141620.684000", "141620.686000", "141620.689000", "141620.692000", "141700.640000", "141700.643000", "141700.645000", "141700.648000", "141700.651000", "141700.654000", "141700.656000", "141700.659000", "141700.662000", "141700.664000", "141700.667000", "141700.670000", "141700.672000", "141700.675000", "141700.678000", "141700.680000", "141700.683000", "141700.686000", "141700.689000", "141700.691000", "141740.641000", "141740.644000", "141740.646000", "141740.649000", "141740.652000", "141740.655000", "141740.657000", "141740.660000", "141740.662000", "141740.665000", "141740.668000", "141740.670000", "141740.673000", "141740.676000", "141740.678000", "141740.681000", "141740.684000", "141740.686000", "141740.689000", "141740.692000", "141820.641000", "141820.644000", "141820.646000", "141820.649000", "141820.652000", "141820.654000", "141820.657000", "141820.660000", "141820.662000", "141820.665000", "141820.668000", "141820.670000", "141820.673000", "141820.676000", "141820.679000", "141820.681000", "141820.684000", "141820.686000", "141820.689000", "141820.692000", "141839.596000", "141839.599000", "141839.602000", "141839.605000", "141839.608000", "141839.610000", "141839.613000", "141839.616000", "141839.619000", "141839.621000"],
      "DataSetTrailingPadding": [
        "\u0000\u0000\u0000\u0000\u0000\u0000\u0000\u0000\u0000\u0000\u0000\u0000\u0000\u0000\u0000\u0000\u0000\u0000\u0000\u0000\u0000\u0000\u0000\u0000\u0000\u0000\u0000\u0000\u0000\u0000\u0000\u0000",
        "\u0000\u0000\u0000\u0000\u0000\u0000\u0000\u0000\u0000\u0000\u0000\u0000\u0000\u0000\u0000\u0000\u0000\u0000\u0000\u0000\u0000\u0000\u0000\u0000\u0000\u0000\u0000\u0000\u0000\u0000\u0000\u0000",
        "\u0000\u0000\u0000\u0000\u0000\u0000\u0000\u0000\u0000\u0000\u0000\u0000\u0000\u0000\u0000\u0000\u0000\u0000\u0000\u0000\u0000\u0000\u0000\u0000\u0000\u0000\u0000\u0000\u0000\u0000\u0000\u0000",
        "\u0000\u0000\u0000\u0000\u0000\u0000\u0000\u0000\u0000\u0000\u0000\u0000\u0000\u0000\u0000\u0000\u0000\u0000\u0000\u0000\u0000\u0000\u0000\u0000\u0000\u0000\u0000\u0000\u0000\u0000\u0000\u0000",
        "\u0000\u0000\u0000\u0000\u0000\u0000\u0000\u0000\u0000\u0000\u0000\u0000\u0000\u0000\u0000\u0000\u0000\u0000\u0000\u0000\u0000\u0000\u0000\u0000\u0000\u0000\u0000\u0000\u0000\u0000",
        "\u0000\u0000\u0000\u0000\u0000\u0000\u0000\u0000\u0000\u0000\u0000\u0000\u0000\u0000\u0000\u0000\u0000\u0000\u0000\u0000\u0000\u0000\u0000\u0000\u0000\u0000\u0000\u0000\u0000\u0000",
        "\u0000\u0000\u0000\u0000\u0000\u0000\u0000\u0000\u0000\u0000\u0000\u0000\u0000\u0000\u0000\u0000\u0000\u0000\u0000\u0000\u0000\u0000\u0000\u0000\u0000\u0000\u0000\u0000\u0000\u0000",
        "\u0000\u0000\u0000\u0000\u0000\u0000\u0000\u0000\u0000\u0000\u0000\u0000\u0000\u0000\u0000\u0000\u0000\u0000\u0000\u0000\u0000\u0000\u0000\u0000\u0000\u0000\u0000\u0000\u0000\u0000",
        "\u0000\u0000\u0000\u0000\u0000\u0000\u0000\u0000\u0000\u0000\u0000\u0000\u0000\u0000\u0000\u0000\u0000\u0000\u0000\u0000\u0000\u0000\u0000\u0000\u0000\u0000\u0000\u0000\u0000\u0000",
        "\u0000\u0000\u0000\u0000\u0000\u0000\u0000\u0000\u0000\u0000\u0000\u0000\u0000\u0000\u0000\u0000\u0000\u0000\u0000\u0000\u0000\u0000\u0000\u0000\u0000\u0000\u0000\u0000\u0000\u0000",
        "\u0000\u0000\u0000\u0000\u0000\u0000\u0000\u0000\u0000\u0000\u0000\u0000\u0000\u0000\u0000\u0000\u0000\u0000\u0000\u0000\u0000\u0000\u0000\u0000\u0000\u0000\u0000\u0000\u0000\u0000",
        "\u0000\u0000\u0000\u0000\u0000\u0000\u0000\u0000\u0000\u0000\u0000\u0000\u0000\u0000\u0000\u0000\u0000\u0000\u0000\u0000\u0000\u0000\u0000\u0000\u0000\u0000\u0000\u0000\u0000\u0000",
        "\u0000\u0000\u0000\u0000\u0000\u0000\u0000\u0000\u0000\u0000\u0000\u0000\u0000\u0000\u0000\u0000\u0000\u0000\u0000\u0000\u0000\u0000\u0000\u0000\u0000\u0000\u0000\u0000\u0000\u0000",
        "\u0000\u0000\u0000\u0000\u0000\u0000\u0000\u0000\u0000\u0000\u0000\u0000\u0000\u0000\u0000\u0000\u0000\u0000\u0000\u0000\u0000\u0000\u0000\u0000\u0000\u0000\u0000\u0000\u0000\u0000",
        "\u0000\u0000\u0000\u0000\u0000\u0000\u0000\u0000\u0000\u0000\u0000\u0000\u0000\u0000\u0000\u0000\u0000\u0000\u0000\u0000\u0000\u0000\u0000\u0000\u0000\u0000\u0000\u0000\u0000\u0000",
        "\u0000\u0000\u0000\u0000\u0000\u0000\u0000\u0000\u0000\u0000\u0000\u0000\u0000\u0000\u0000\u0000\u0000\u0000\u0000\u0000\u0000\u0000\u0000\u0000\u0000\u0000\u0000\u0000\u0000\u0000",
        "\u0000\u0000\u0000\u0000\u0000\u0000\u0000\u0000\u0000\u0000\u0000\u0000\u0000\u0000\u0000\u0000\u0000\u0000\u0000\u0000\u0000\u0000\u0000\u0000\u0000\u0000\u0000\u0000\u0000\u0000",
        "\u0000\u0000\u0000\u0000\u0000\u0000\u0000\u0000\u0000\u0000\u0000\u0000\u0000\u0000\u0000\u0000\u0000\u0000\u0000\u0000\u0000\u0000\u0000\u0000\u0000\u0000\u0000\u0000\u0000\u0000",
        "\u0000\u0000\u0000\u0000\u0000\u0000\u0000\u0000\u0000\u0000\u0000\u0000\u0000\u0000\u0000\u0000\u0000\u0000\u0000\u0000\u0000\u0000\u0000\u0000\u0000\u0000\u0000\u0000\u0000\u0000",
        "\u0000\u0000\u0000\u0000\u0000\u0000\u0000\u0000\u0000\u0000\u0000\u0000\u0000\u0000\u0000\u0000\u0000\u0000\u0000\u0000\u0000\u0000\u0000\u0000\u0000\u0000\u0000\u0000\u0000\u0000",
        "\u0000\u0000\u0000\u0000\u0000\u0000\u0000\u0000\u0000\u0000\u0000\u0000\u0000\u0000\u0000\u0000\u0000\u0000\u0000\u0000\u0000\u0000\u0000\u0000\u0000\u0000\u0000\u0000\u0000\u0000",
        "\u0000\u0000\u0000\u0000\u0000\u0000\u0000\u0000\u0000\u0000\u0000\u0000\u0000\u0000\u0000\u0000\u0000\u0000\u0000\u0000\u0000\u0000\u0000\u0000\u0000\u0000\u0000\u0000\u0000\u0000",
        "\u0000\u0000\u0000\u0000\u0000\u0000\u0000\u0000\u0000\u0000\u0000\u0000\u0000\u0000\u0000\u0000\u0000\u0000\u0000\u0000\u0000\u0000\u0000\u0000\u0000\u0000\u0000\u0000\u0000\u0000",
        "\u0000\u0000\u0000\u0000\u0000\u0000\u0000\u0000\u0000\u0000\u0000\u0000\u0000\u0000\u0000\u0000\u0000\u0000\u0000\u0000\u0000\u0000\u0000\u0000\u0000\u0000\u0000\u0000\u0000\u0000",
        "\u0000\u0000\u0000\u0000\u0000\u0000\u0000\u0000\u0000\u0000\u0000\u0000\u0000\u0000\u0000\u0000\u0000\u0000\u0000\u0000\u0000\u0000\u0000\u0000\u0000\u0000\u0000\u0000\u0000\u0000",
        "\u0000\u0000\u0000\u0000\u0000\u0000\u0000\u0000\u0000\u0000\u0000\u0000\u0000\u0000\u0000\u0000\u0000\u0000\u0000\u0000\u0000\u0000\u0000\u0000\u0000\u0000\u0000\u0000\u0000\u0000",
        "\u0000\u0000\u0000\u0000\u0000\u0000\u0000\u0000\u0000\u0000\u0000\u0000\u0000\u0000\u0000\u0000\u0000\u0000\u0000\u0000\u0000\u0000\u0000\u0000\u0000\u0000\u0000\u0000\u0000\u0000",
        "\u0000\u0000\u0000\u0000\u0000\u0000\u0000\u0000\u0000\u0000\u0000\u0000\u0000\u0000\u0000\u0000\u0000\u0000\u0000\u0000\u0000\u0000\u0000\u0000\u0000\u0000\u0000\u0000\u0000\u0000",
        "\u0000\u0000\u0000\u0000\u0000\u0000\u0000\u0000\u0000\u0000\u0000\u0000\u0000\u0000\u0000\u0000\u0000\u0000\u0000\u0000\u0000\u0000\u0000\u0000\u0000\u0000\u0000\u0000\u0000\u0000",
        "\u0000\u0000\u0000\u0000\u0000\u0000\u0000\u0000\u0000\u0000\u0000\u0000\u0000\u0000\u0000\u0000\u0000\u0000\u0000\u0000\u0000\u0000\u0000\u0000\u0000\u0000\u0000\u0000\u0000\u0000",
        "\u0000\u0000\u0000\u0000\u0000\u0000\u0000\u0000\u0000\u0000\u0000\u0000\u0000\u0000\u0000\u0000\u0000\u0000\u0000\u0000\u0000\u0000\u0000\u0000\u0000\u0000\u0000\u0000\u0000\u0000",
        "\u0000\u0000\u0000\u0000\u0000\u0000\u0000\u0000\u0000\u0000\u0000\u0000\u0000\u0000\u0000\u0000\u0000\u0000\u0000\u0000\u0000\u0000\u0000\u0000\u0000\u0000\u0000\u0000\u0000\u0000",
        "\u0000\u0000\u0000\u0000\u0000\u0000\u0000\u0000\u0000\u0000\u0000\u0000\u0000\u0000\u0000\u0000\u0000\u0000\u0000\u0000\u0000\u0000\u0000\u0000\u0000\u0000\u0000\u0000\u0000\u0000",
        "\u0000\u0000\u0000\u0000\u0000\u0000\u0000\u0000\u0000\u0000\u0000\u0000\u0000\u0000\u0000\u0000\u0000\u0000\u0000\u0000\u0000\u0000\u0000\u0000\u0000\u0000\u0000\u0000\u0000\u0000",
        "\u0000\u0000\u0000\u0000\u0000\u0000\u0000\u0000\u0000\u0000\u0000\u0000\u0000\u0000\u0000\u0000\u0000\u0000\u0000\u0000\u0000\u0000\u0000\u0000\u0000\u0000\u0000\u0000\u0000\u0000",
        "\u0000\u0000\u0000\u0000\u0000\u0000\u0000\u0000\u0000\u0000\u0000\u0000\u0000\u0000\u0000\u0000\u0000\u0000\u0000\u0000\u0000\u0000\u0000\u0000\u0000\u0000\u0000\u0000\u0000\u0000",
        "\u0000\u0000\u0000\u0000\u0000\u0000\u0000\u0000\u0000\u0000\u0000\u0000\u0000\u0000\u0000\u0000\u0000\u0000\u0000\u0000\u0000\u0000\u0000\u0000\u0000\u0000\u0000\u0000\u0000\u0000",
        "\u0000\u0000\u0000\u0000\u0000\u0000\u0000\u0000\u0000\u0000\u0000\u0000\u0000\u0000\u0000\u0000\u0000\u0000\u0000\u0000\u0000\u0000\u0000\u0000\u0000\u0000\u0000\u0000\u0000\u0000",
        "\u0000\u0000\u0000\u0000\u0000\u0000\u0000\u0000\u0000\u0000\u0000\u0000\u0000\u0000\u0000\u0000\u0000\u0000\u0000\u0000\u0000\u0000\u0000\u0000\u0000\u0000\u0000\u0000\u0000\u0000",
        "\u0000\u0000\u0000\u0000\u0000\u0000\u0000\u0000\u0000\u0000\u0000\u0000\u0000\u0000\u0000\u0000\u0000\u0000\u0000\u0000\u0000\u0000\u0000\u0000\u0000\u0000\u0000\u0000\u0000\u0000",
        "\u0000\u0000\u0000\u0000\u0000\u0000\u0000\u0000\u0000\u0000\u0000\u0000\u0000\u0000\u0000\u0000\u0000\u0000\u0000\u0000\u0000\u0000\u0000\u0000\u0000\u0000\u0000\u0000\u0000\u0000",
        "\u0000\u0000\u0000\u0000\u0000\u0000\u0000\u0000\u0000\u0000\u0000\u0000\u0000\u0000\u0000\u0000\u0000\u0000\u0000\u0000\u0000\u0000\u0000\u0000\u0000\u0000\u0000\u0000\u0000\u0000",
        "\u0000\u0000\u0000\u0000\u0000\u0000\u0000\u0000\u0000\u0000\u0000\u0000\u0000\u0000\u0000\u0000\u0000\u0000\u0000\u0000\u0000\u0000\u0000\u0000\u0000\u0000\u0000\u0000\u0000\u0000",
        "\u0000\u0000\u0000\u0000\u0000\u0000\u0000\u0000\u0000\u0000\u0000\u0000\u0000\u0000\u0000\u0000\u0000\u0000\u0000\u0000\u0000\u0000\u0000\u0000\u0000\u0000\u0000\u0000\u0000\u0000",
        "\u0000\u0000\u0000\u0000\u0000\u0000\u0000\u0000\u0000\u0000\u0000\u0000\u0000\u0000\u0000\u0000\u0000\u0000\u0000\u0000\u0000\u0000\u0000\u0000\u0000\u0000\u0000\u0000\u0000\u0000",
        "\u0000\u0000\u0000\u0000\u0000\u0000\u0000\u0000\u0000\u0000\u0000\u0000\u0000\u0000\u0000\u0000\u0000\u0000\u0000\u0000\u0000\u0000\u0000\u0000\u0000\u0000\u0000\u0000\u0000\u0000",
        "\u0000\u0000\u0000\u0000\u0000\u0000\u0000\u0000\u0000\u0000\u0000\u0000\u0000\u0000\u0000\u0000\u0000\u0000\u0000\u0000\u0000\u0000\u0000\u0000\u0000\u0000\u0000\u0000\u0000\u0000",
        "\u0000\u0000\u0000\u0000\u0000\u0000\u0000\u0000\u0000\u0000\u0000\u0000\u0000\u0000\u0000\u0000\u0000\u0000\u0000\u0000\u0000\u0000\u0000\u0000\u0000\u0000\u0000\u0000\u0000\u0000",
        "\u0000\u0000\u0000\u0000\u0000\u0000\u0000\u0000\u0000\u0000\u0000\u0000\u0000\u0000\u0000\u0000\u0000\u0000\u0000\u0000\u0000\u0000\u0000\u0000\u0000\u0000\u0000\u0000\u0000\u0000",
        "\u0000\u0000\u0000\u0000\u0000\u0000\u0000\u0000\u0000\u0000\u0000\u0000\u0000\u0000\u0000\u0000\u0000\u0000\u0000\u0000\u0000\u0000\u0000\u0000\u0000\u0000",
        "\u0000\u0000\u0000\u0000\u0000\u0000\u0000\u0000\u0000\u0000\u0000\u0000\u0000\u0000\u0000\u0000\u0000\u0000\u0000\u0000\u0000\u0000\u0000\u0000\u0000\u0000",
        "\u0000\u0000\u0000\u0000\u0000\u0000\u0000\u0000\u0000\u0000\u0000\u0000\u0000\u0000\u0000\u0000\u0000\u0000\u0000\u0000\u0000\u0000\u0000\u0000\u0000\u0000",
        "\u0000\u0000\u0000\u0000\u0000\u0000\u0000\u0000\u0000\u0000\u0000\u0000\u0000\u0000\u0000\u0000\u0000\u0000\u0000\u0000\u0000\u0000\u0000\u0000\u0000\u0000",
        "\u0000\u0000\u0000\u0000\u0000\u0000\u0000\u0000\u0000\u0000\u0000\u0000\u0000\u0000\u0000\u0000\u0000\u0000\u0000\u0000\u0000\u0000\u0000\u0000\u0000\u0000",
        "\u0000\u0000\u0000\u0000\u0000\u0000\u0000\u0000\u0000\u0000\u0000\u0000\u0000\u0000\u0000\u0000\u0000\u0000\u0000\u0000\u0000\u0000\u0000\u0000\u0000\u0000",
        "\u0000\u0000\u0000\u0000\u0000\u0000\u0000\u0000\u0000\u0000\u0000\u0000\u0000\u0000\u0000\u0000\u0000\u0000\u0000\u0000\u0000\u0000\u0000\u0000\u0000\u0000",
        "\u0000\u0000\u0000\u0000\u0000\u0000\u0000\u0000\u0000\u0000\u0000\u0000\u0000\u0000\u0000\u0000\u0000\u0000\u0000\u0000\u0000\u0000\u0000\u0000\u0000\u0000",
        "\u0000\u0000\u0000\u0000\u0000\u0000\u0000\u0000\u0000\u0000\u0000\u0000\u0000\u0000\u0000\u0000\u0000\u0000\u0000\u0000\u0000\u0000\u0000\u0000\u0000\u0000",
        "\u0000\u0000\u0000\u0000\u0000\u0000\u0000\u0000\u0000\u0000\u0000\u0000\u0000\u0000\u0000\u0000\u0000\u0000\u0000\u0000\u0000\u0000\u0000\u0000\u0000\u0000",
        "\u0000\u0000\u0000\u0000\u0000\u0000\u0000\u0000\u0000\u0000\u0000\u0000\u0000\u0000\u0000\u0000\u0000\u0000\u0000\u0000\u0000\u0000\u0000\u0000\u0000\u0000",
