{
  "AcquisitionMatrixPE": 70,
  "AcquisitionNumber": 1,
  "AcquisitionTime": "13:54:57.760000",
  "BandwidthPerPixelPhaseEncode": 51.948,
  "BaseResolution": 70,
  "BodyPartExamined": "HEAD",
  "CoilCombinationMethod": "Sum of Squares",
  "ConsistencyInfo": "N4_VE11C_LATEST_20160120",
  "ConversionSoftware": "dcm2niix",
  "ConversionSoftwareVersion": "v1.0.20220720",
  "DerivedVendorReportedEchoSpacing": 0.000550001,
  "DeviceSerialNumber": "66061",
  "DwellTime": 3.3e-06,
  "EchoTime": 0.022,
  "EchoTrainLength": 35,
  "EffectiveEchoSpacing": 0.000275,
  "FlipAngle": 90,
  "HeudiconvVersion": "1.1.1",
  "ImageOrientationPatientDICOM": [0.998093, 0.0125758, 0.0604365, -0.00121939, 0.982855, -0.184377],
  "ImageOrientationText": "Tra>Cor(-10.6)>Sag(3.5)",
  "ImageType": [
    "ORIGINAL",
    "PRIMARY",
    "M",
    "ND",
    "NORM",
    "MOSAIC"
],
  "ImagingFrequency": 123.254,
  "InPlanePhaseEncodingDirectionDICOM": "COL",
  "InstitutionAddress": "Street StreetNo,City/1c4204/,District,KR,ZIP",
  "InstitutionName": "SKKU",
  "InstitutionalDepartmentName": "Department",
  "MRAcquisitionType": "2D",
  "MagneticFieldStrength": 3,
  "Manufacturer": "Siemens",
  "ManufacturersModelName": "Prisma",
  "MatrixCoilMode": "GRAPPA",
  "Modality": "MR",
  "NonlinearGradientCorrection": false,
  "ParallelReductionFactorInPlane": 2,
  "PartialFourier": 1,
  "PatientPosition": "HFS",
  "PercentPhaseFOV": 100,
  "PercentSampling": 100,
  "PhaseEncodingDirection": "j-",
  "PhaseEncodingSteps": 70,
  "PhaseResolution": 1,
  "PixelBandwidth": 2165,
  "ProcedureStepDescription": "Head^PI:Others",
  "ProtocolName": "BOLD_ep2d_3x3x3_response1",
  "PulseSequenceDetails": "%SiemensSeq%\\ep2d_pace",
  "ReceiveCoilActiveElements": "HC1-7",
  "ReceiveCoilName": "HeadNeck_64",
  "ReconMatrixPE": 70,
  "RefLinesPE": 24,
  "RepetitionTime": 2,
  "SAR": 0.126295,
  "ScanOptions": "FS",
  "ScanningSequence": "EP",
  "SequenceName": "*epfid2d1_70",
  "SequenceVariant": "SK",
  "SeriesDescription": "BOLD_ep2d_3x3x3_response1",
  "SeriesNumber": 9,
  "ShimSetting": [5066, 3721, 4483, 363, -54, -80, -9, 54],
  "SliceThickness": 3,
  "SliceTiming": [0.99, 0, 1.0375, 0.0475, 1.085, 0.095, 1.1325, 0.1425, 1.18, 0.19, 1.2275, 0.2375, 1.2725, 0.2825, 1.32, 0.33, 1.3675, 0.3775, 1.415, 0.425, 1.4625, 0.4725, 1.51, 0.52, 1.5575, 0.5675, 1.6025, 0.6125, 1.65, 0.66, 1.6975, 0.7075, 1.745, 0.755, 1.7925, 0.8025, 1.84, 0.85, 1.8875, 0.8975, 1.9325, 0.9425],
  "SoftwareVersions": "syngo MR E11",
  "SpacingBetweenSlices": 3,
  "StationName": "AWP66061",
  "TaskName": "response",
  "TotalReadoutTime": 0.018975,
  "TxRefAmp": 213.616,
  "dcmmeta_affine": [
    [-2.9942784309387207, -0.0036581766325980425, 0.18515706062316895, 106.97344970703125],
    [-0.03772730007767677, 2.9485647678375244, -0.5518540740013123, -87.61192321777344],
    [0.18130959570407867, 0.553130030632019, 2.9429872035980225, -58.90238952636719],
    [0.0, 0.0, 0.0, 1.0]
],
  "dcmmeta_reorient_transform": [
    [0.0, -1.0, 0.0, 69.0],
    [1.0, 0.0, 0.0, 0.0],
    [0.0, 0.0, -1.0, 41.0],
    [0.0, 0.0, 0.0, 1.0]
],
  "dcmmeta_shape": [70, 70, 42, 341],
  "dcmmeta_slice_dim": 2,
  "dcmmeta_version": 0.6,
  "global": {
    "const": {
      "AcquisitionMatrix": [70, 0, 0, 70],
      "AngioFlag": "N",
      "BitsAllocated": 16,
      "BitsStored": 12,
      "BodyPartExamined": "HEAD",
      "Columns": 490,
      "EchoNumbers": 1,
      "EchoTime": 22.0,
      "EchoTrainLength": 35,
      "FlipAngle": 90.0,
      "HighBit": 11,
      "ImageOrientationPatient": [0.99809281925237, 0.01257576670599, 0.060436530746, -0.0012193922158, 0.98285489799882, -0.1843766866021],
      "ImagePositionPatient": [-742.34273501571, -720.33434098724, 178.00836044044],
      "ImageType": [
        "ORIGINAL",
        "PRIMARY",
        "M",
        "ND",
        "NORM",
        "MOSAIC"
],
      "ImagedNucleus": "1H",
      "ImagingFrequency": 123.254004,
      "InPlanePhaseEncodingDirection": "COL",
      "MRAcquisitionType": "2D",
      "MagneticFieldStrength": 3.0,
      "Manufacturer": "SIEMENS",
      "ManufacturerModelName": "Prisma",
      "Modality": "MR",
      "NumberOfAverages": 1.0,
      "NumberOfPhaseEncodingSteps": 70,
      "PercentPhaseFieldOfView": 100.0,
      "PercentSampling": 100.0,
      "PerformedProcedureStepStartTime": "130252.398000",
      "PhotometricInterpretation": "MONOCHROME2",
      "PixelBandwidth": 2165.0,
      "PixelRepresentation": 0,
      "PixelSpacing": [3.0, 3.0],
      "ProtocolName": "BOLD_ep2d_3x3x3_response1",
      "RepetitionTime": 2000.0,
      "Rows": 490,
      "SAR": 0.12629474355162,
      "SamplesPerPixel": 1,
      "ScanOptions": "FS",
      "ScanningSequence": "EP",
      "SequenceName": "*epfid2d1_70",
      "SequenceVariant": "SK",
      "SeriesDescription": "BOLD_ep2d_3x3x3_response1",
      "SeriesNumber": 9,
      "SeriesTime": "135542.197000",
      "SliceLocation": 87.935634904828,
      "SliceThickness": 3.0,
      "SmallestImagePixelValue": 0,
      "SoftwareVersions": "syngo MR E11",
      "SpacingBetweenSlices": 3.0000000465735,
      "SpecificCharacterSet": "ISO_IR 100",
      "StudyID": "1",
      "StudyTime": "130252.322000",
      "TransmitCoilName": "Body",
      "VariableFlipAngleFlag": "N",
      "WindowCenterWidthExplanation": "Algo1",
      "dBdt": 0.0},
    "slices": {}
  },
  "time": {
    "samples": {
      "AcquisitionNumber": [1, 2, 3, 4, 5, 6, 7, 8, 9, 10, 11, 12, 13, 14, 15, 16, 17, 18, 19, 20, 21, 22, 23, 24, 25, 26, 27, 28, 29, 30, 31, 32, 33, 34, 35, 36, 37, 38, 39, 40, 41, 42, 43, 44, 45, 46, 47, 48, 49, 50, 51, 52, 53, 54, 55, 56, 57, 58, 59, 60, 61, 62, 63, 64, 65, 66, 67, 68, 69, 70, 71, 72, 73, 74, 75, 76, 77, 78, 79, 80, 81, 82, 83, 84, 85, 86, 87, 88, 89, 90, 91, 92, 93, 94, 95, 96, 97, 98, 99, 100, 101, 102, 103, 104, 105, 106, 107, 108, 109, 110, 111, 112, 113, 114, 115, 116, 117, 118, 119, 120, 121, 122, 123, 124, 125, 126, 127, 128, 129, 130, 131, 132, 133, 134, 135, 136, 137, 138, 139, 140, 141, 142, 143, 144, 145, 146, 147, 148, 149, 150, 151, 152, 153, 154, 155, 156, 157, 158, 159, 160, 161, 162, 163, 164, 165, 166, 167, 168, 169, 170, 171, 172, 173, 174, 175, 176, 177, 178, 179, 180, 181, 182, 183, 184, 185, 186, 187, 188, 189, 190, 191, 192, 193, 194, 195, 196, 197, 198, 199, 200, 201, 202, 203, 204, 205, 206, 207, 208, 209, 210, 211, 212, 213, 214, 215, 216, 217, 218, 219, 220, 221, 222, 223, 224, 225, 226, 227, 228, 229, 230, 231, 232, 233, 234, 235, 236, 237, 238, 239, 240, 241, 242, 243, 244, 245, 246, 247, 248, 249, 250, 251, 252, 253, 254, 255, 256, 257, 258, 259, 260, 261, 262, 263, 264, 265, 266, 267, 268, 269, 270, 271, 272, 273, 274, 275, 276, 277, 278, 279, 280, 281, 282, 283, 284, 285, 286, 287, 288, 289, 290, 291, 292, 293, 294, 295, 296, 297, 298, 299, 300, 301, 302, 303, 304, 305, 306, 307, 308, 309, 310, 311, 312, 313, 314, 315, 316, 317, 318, 319, 320, 321, 322, 323, 324, 325, 326, 327, 328, 329, 330, 331, 332, 333, 334, 335, 336, 337, 338, 339, 340, 341],
      "AcquisitionTime": ["135457.760000", "135459.760000", "135501.760000", "135503.760000", "135505.760000", "135507.760000", "135509.760000", "135511.760000", "135513.760000", "135515.760000", "135517.760000", "135519.760000", "135521.760000", "135523.760000", "135525.760000", "135527.760000", "135529.760000", "135531.760000", "135533.760000", "135535.760000", "135537.760000", "135539.760000", "135541.760000", "135543.760000", "135545.760000", "135547.760000", "135549.760000", "135551.760000", "135553.760000", "135555.760000", "135557.760000", "135559.760000", "135601.760000", "135603.760000", "135605.760000", "135607.760000", "135609.760000", "135611.760000", "135613.760000", "135615.760000", "135617.760000", "135619.760000", "135621.760000", "135623.760000", "135625.760000", "135627.760000", "135629.760000", "135631.760000", "135633.760000", "135635.760000", "135637.760000", "135639.760000", "135641.760000", "135643.760000", "135645.760000", "135647.760000", "135649.760000", "135651.760000", "135653.760000", "135655.760000", "135657.760000", "135659.760000", "135701.760000", "135703.760000", "135705.760000", "135707.760000", "135709.760000", "135711.760000", "135713.760000", "135715.760000", "135717.760000", "135719.760000", "135721.760000", "135723.760000", "135725.760000", "135727.760000", "135729.760000", "135731.760000", "135733.760000", "135735.760000", "135737.760000", "135739.760000", "135741.760000", "135743.760000", "135745.760000", "135747.760000", "135749.760000", "135751.760000", "135753.760000", "135755.760000", "135757.760000", "135759.760000", "135801.760000", "135803.760000", "135805.760000", "135807.760000", "135809.760000", "135811.760000", "135813.760000", "135815.760000", "135817.760000", "135819.760000", "135821.760000", "135823.760000", "135825.760000", "135827.760000", "135829.760000", "135831.760000", "135833.760000", "135835.760000", "135837.760000", "135839.760000", "135841.760000", "135843.760000", "135845.760000", "135847.760000", "135849.760000", "135851.760000", "135853.760000", "135855.760000", "135857.760000", "135859.760000", "135901.760000", "135903.760000", "135905.760000", "135907.760000", "135909.760000", "135911.760000", "135913.760000", "135915.760000", "135917.760000", "135919.760000", "135921.760000", "135923.760000", "135925.760000", "135927.760000", "135929.760000", "135931.760000", "135933.760000", "135935.760000", "135937.760000", "135939.760000", "135941.760000", "135943.760000", "135945.760000", "135947.760000", "135949.760000", "135951.760000", "135953.760000", "135955.760000", "135957.760000", "135959.760000", "140001.760000", "140003.760000", "140005.760000", "140007.760000", "140009.760000", "140011.760000", "140013.760000", "140015.760000", "140017.760000", "140019.760000", "140021.760000", "140023.760000", "140025.760000", "140027.760000", "140029.760000", "140031.760000", "140033.760000", "140035.760000", "140037.760000", "140039.760000", "140041.760000", "140043.760000", "140045.760000", "140047.760000", "140049.760000", "140051.760000", "140053.760000", "140055.760000", "140057.760000", "140059.760000", "140101.760000", "140103.760000", "140105.760000", "140107.760000", "140109.760000", "140111.760000", "140113.760000", "140115.760000", "140117.760000", "140119.760000", "140121.760000", "140123.760000", "140125.760000", "140127.760000", "140129.760000", "140131.760000", "140133.760000", "140135.760000", "140137.760000", "140139.760000", "140141.760000", "140143.760000", "140145.760000", "140147.760000", "140149.760000", "140151.760000", "140153.760000", "140155.760000", "140157.760000", "140159.760000", "140201.760000", "140203.760000", "140205.760000", "140207.760000", "140209.760000", "140211.760000", "140213.760000", "140215.760000", "140217.760000", "140219.760000", "140221.760000", "140223.760000", "140225.760000", "140227.760000", "140229.760000", "140231.760000", "140233.760000", "140235.760000", "140237.760000", "140239.760000", "140241.760000", "140243.760000", "140245.760000", "140247.760000", "140249.760000", "140251.760000", "140253.760000", "140255.760000", "140257.760000", "140259.760000", "140301.760000", "140303.760000", "140305.760000", "140307.760000", "140309.760000", "140311.760000", "140313.760000", "140315.760000", "140317.760000", "140319.760000", "140321.760000", "140323.760000", "140325.760000", "140327.760000", "140329.760000", "140331.760000", "140333.760000", "140335.760000", "140337.760000", "140339.760000", "140341.760000", "140343.760000", "140345.760000", "140347.760000", "140349.760000", "140351.760000", "140353.760000", "140355.760000", "140357.760000", "140359.760000", "140401.760000", "140403.760000", "140405.760000", "140407.760000", "140409.760000", "140411.760000", "140413.760000", "140415.760000", "140417.760000", "140419.760000", "140421.760000", "140423.760000", "140425.760000", "140427.760000", "140429.760000", "140431.760000", "140433.760000", "140435.760000", "140437.760000", "140439.760000", "140441.760000", "140443.760000", "140445.760000", "140447.760000", "140449.760000", "140451.760000", "140453.760000", "140455.760000", "140457.760000", "140459.760000", "140501.760000", "140503.760000", "140505.760000", "140507.760000", "140509.760000", "140511.760000", "140513.760000", "140515.760000", "140517.760000", "140519.760000", "140521.760000", "140523.760000", "140525.760000", "140527.760000", "140529.760000", "140531.760000", "140533.760000", "140535.760000", "140537.760000", "140539.760000", "140541.760000", "140543.760000", "140545.760000", "140547.760000", "140549.760000", "140551.760000", "140553.760000", "140555.760000", "140557.760000", "140559.760000", "140601.760000", "140603.760000", "140605.760000", "140607.760000", "140609.760000", "140611.760000", "140613.760000", "140615.760000", "140617.760000"],
      "ContentTime": ["135542.200000", "135542.204000", "135542.207000", "135542.209000", "135542.212000", "135542.221000", "135542.223000", "135542.226000", "135542.229000", "135542.231000", "135542.234000", "135542.237000", "135542.239000", "135542.242000", "135542.245000", "135542.252000", "135542.255000", "135542.258000", "135542.260000", "135542.263000", "135542.266000", "135542.268000", "135622.197000", "135622.200000", "135622.202000", "135622.205000", "135622.207000", "135622.210000", "135622.213000", "135622.215000", "135622.218000", "135622.220000", "135622.223000", "135622.226000", "135622.228000", "135622.231000", "135622.234000", "135622.236000", "135622.239000", "135622.242000", "135622.244000", "135622.247000", "135702.196000", "135702.198000", "135702.201000", "135702.204000", "135702.207000", "135702.217000", "135702.220000", "135702.222000", "135702.225000", "135702.228000", "135702.230000", "135702.233000", "135702.236000", "135702.238000", "135702.241000", "135702.244000", "135702.246000", "135702.249000", "135702.252000", "135702.254000", "135742.196000", "135742.198000", "135742.201000", "135742.204000", "135742.206000", "135742.209000", "135742.212000", "135742.214000", "135742.217000", "135742.220000", "135742.222000", "135742.225000", "135742.228000", "135742.230000", "135742.233000", "135742.236000", "135742.238000", "135742.241000", "135742.244000", "135742.246000", "135822.196000", "135822.198000", "135822.201000", "135822.204000", "135822.206000", "135822.209000", "135822.212000", "135822.214000", "135822.217000", "135822.219000", "135822.222000", "135822.225000", "135822.227000", "135822.230000", "135822.233000", "135822.235000", "135822.238000", "135822.241000", "135822.243000", "135822.246000", "135902.197000", "135902.199000", "135902.202000", "135902.205000", "135902.207000", "135902.210000", "135902.213000", "135902.215000", "135902.218000", "135902.220000", "135902.223000", "135902.236000", "135902.238000", "135902.241000", "135902.244000", "135902.246000", "135902.249000", "135902.252000", "135902.254000", "135902.257000", "135942.196000", "135942.199000", "135942.201000", "135942.204000", "135942.207000", "135942.209000", "135942.212000", "135942.215000", "135942.217000", "135942.220000", "135942.223000", "135942.226000", "135942.228000", "135942.231000", "135942.234000", "135942.236000", "135942.239000", "135942.242000", "135942.244000", "135942.247000", "140022.196000", "140022.199000", "140022.201000", "140022.204000", "140022.206000", "140022.209000", "140022.212000", "140022.214000", "140022.217000", "140022.220000", "140022.222000", "140022.225000", "140022.228000", "140022.230000", "140022.233000", "140022.236000", "140022.238000", "140022.241000", "140022.244000", "140022.246000", "140102.197000", "140102.200000", "140102.202000", "140102.205000", "140102.208000", "140102.210000", "140102.213000", "140102.216000", "140102.218000", "140102.221000", "140102.224000", "140102.226000", "140102.229000", "140102.232000", "140102.234000", "140102.237000", "140102.239000", "140102.242000", "140102.245000", "140102.247000", "140142.196000", "140142.199000", "140142.201000", "140142.204000", "140142.206000", "140142.223000", "140142.225000", "140142.228000", "140142.231000", "140142.233000", "140142.236000", "140142.239000", "140142.241000", "140142.244000", "140142.246000", "140142.249000", "140142.252000", "140142.254000", "140142.257000", "140142.260000", "140222.196000", "140222.199000", "140222.201000", "140222.210000", "140222.212000", "140222.215000", "140222.218000", "140222.220000", "140222.223000", "140222.226000", "140222.229000", "140222.231000", "140222.234000", "140222.236000", "140222.239000", "140222.242000", "140222.244000", "140222.247000", "140222.250000", "140222.252000", "140302.196000", "140302.198000", "140302.201000", "140302.204000", "140302.207000", "140302.209000", "140302.212000", "140302.215000", "140302.217000", "140302.220000", "140302.222000", "140302.225000", "140302.228000", "140302.231000", "140302.233000", "140302.236000", "140302.239000", "140302.242000", "140302.244000", "140302.247000", "140342.197000", "140342.200000", "140342.202000", "140342.205000", "140342.216000", "140342.219000", "140342.221000", "140342.224000", "140342.227000", "140342.229000", "140342.232000", "140342.235000", "140342.237000", "140342.240000", "140342.243000", "140342.245000", "140342.248000", "140342.251000", "140342.253000", "140342.256000", "140422.196000", "140422.199000", "140422.201000", "140422.204000", "140422.206000", "140422.209000", "140422.212000", "140422.214000", "140422.217000", "140422.220000", "140422.222000", "140422.225000", "140422.228000", "140422.230000", "140422.233000", "140422.236000", "140422.238000", "140422.241000", "140422.243000", "140422.246000", "140502.196000", "140502.199000", "140502.201000", "140502.204000", "140502.207000", "140502.209000", "140502.212000", "140502.215000", "140502.217000", "140502.220000", "140502.223000", "140502.226000", "140502.228000", "140502.231000", "140502.234000", "140502.236000", "140502.239000", "140502.242000", "140502.244000", "140502.247000", "140542.197000", "140542.200000", "140542.202000", "140542.205000", "140542.208000", "140542.210000", "140542.213000", "140542.216000", "140542.218000", "140542.221000", "140542.224000", "140542.226000", "140542.229000", "140542.231000", "140542.234000", "140542.237000", "140542.239000", "140542.242000", "140542.245000", "140542.248000", "140619.061000", "140619.064000", "140619.066000", "140619.069000", "140619.072000", "140619.075000", "140619.078000", "140619.080000", "140619.083000", "140619.086000", "140619.088000", "140619.092000", "140619.100000", "140619.104000", "140619.107000", "140619.111000", "140619.114000", "140619.120000", "140619.125000"],
      "DataSetTrailingPadding": [
        "\u0000\u0000\u0000\u0000\u0000\u0000\u0000\u0000\u0000\u0000\u0000\u0000\u0000\u0000\u0000\u0000\u0000\u0000\u0000\u0000",
        "\u0000\u0000\u0000\u0000\u0000\u0000\u0000\u0000\u0000\u0000\u0000\u0000\u0000\u0000\u0000\u0000\u0000\u0000\u0000\u0000\u0000\u0000",
        "\u0000\u0000\u0000\u0000\u0000\u0000\u0000\u0000\u0000\u0000\u0000\u0000\u0000\u0000\u0000\u0000\u0000\u0000\u0000\u0000\u0000\u0000",
        "\u0000\u0000\u0000\u0000\u0000\u0000\u0000\u0000\u0000\u0000\u0000\u0000\u0000\u0000\u0000\u0000\u0000\u0000\u0000\u0000",
        "\u0000\u0000\u0000\u0000\u0000\u0000\u0000\u0000\u0000\u0000\u0000\u0000\u0000\u0000\u0000\u0000\u0000\u0000\u0000\u0000",
        "\u0000\u0000\u0000\u0000\u0000\u0000\u0000\u0000\u0000\u0000\u0000\u0000\u0000\u0000\u0000\u0000\u0000\u0000\u0000\u0000\u0000\u0000",
        "\u0000\u0000\u0000\u0000\u0000\u0000\u0000\u0000\u0000\u0000\u0000\u0000\u0000\u0000\u0000\u0000\u0000\u0000\u0000\u0000",
        "\u0000\u0000\u0000\u0000\u0000\u0000\u0000\u0000\u0000\u0000\u0000\u0000\u0000\u0000\u0000\u0000\u0000\u0000\u0000\u0000",
        "\u0000\u0000\u0000\u0000\u0000\u0000\u0000\u0000\u0000\u0000\u0000\u0000\u0000\u0000\u0000\u0000\u0000\u0000\u0000\u0000",
        "\u0000\u0000\u0000\u0000\u0000\u0000\u0000\u0000\u0000\u0000\u0000\u0000\u0000\u0000\u0000\u0000\u0000\u0000\u0000\u0000\u0000\u0000",
        "\u0000\u0000\u0000\u0000\u0000\u0000\u0000\u0000\u0000\u0000\u0000\u0000\u0000\u0000\u0000\u0000\u0000\u0000\u0000\u0000",
        "\u0000\u0000\u0000\u0000\u0000\u0000\u0000\u0000\u0000\u0000\u0000\u0000\u0000\u0000\u0000\u0000\u0000\u0000\u0000\u0000\u0000\u0000",
        "\u0000\u0000\u0000\u0000\u0000\u0000\u0000\u0000\u0000\u0000\u0000\u0000\u0000\u0000\u0000\u0000\u0000\u0000\u0000\u0000",
        "\u0000\u0000\u0000\u0000\u0000\u0000\u0000\u0000\u0000\u0000\u0000\u0000\u0000\u0000\u0000\u0000\u0000\u0000\u0000\u0000\u0000\u0000",
        "\u0000\u0000\u0000\u0000\u0000\u0000\u0000\u0000\u0000\u0000\u0000\u0000\u0000\u0000\u0000\u0000\u0000\u0000\u0000\u0000",
        "\u0000\u0000\u0000\u0000\u0000\u0000\u0000\u0000\u0000\u0000\u0000\u0000\u0000\u0000\u0000\u0000\u0000\u0000\u0000\u0000",
        "\u0000\u0000\u0000\u0000\u0000\u0000\u0000\u0000\u0000\u0000\u0000\u0000\u0000\u0000\u0000\u0000\u0000\u0000\u0000\u0000\u0000\u0000",
        "\u0000\u0000\u0000\u0000\u0000\u0000\u0000\u0000\u0000\u0000\u0000\u0000\u0000\u0000\u0000\u0000\u0000\u0000\u0000\u0000",
        "\u0000\u0000\u0000\u0000\u0000\u0000\u0000\u0000\u0000\u0000\u0000\u0000\u0000\u0000\u0000\u0000\u0000\u0000\u0000\u0000",
        "\u0000\u0000\u0000\u0000\u0000\u0000\u0000\u0000\u0000\u0000\u0000\u0000\u0000\u0000\u0000\u0000\u0000\u0000\u0000\u0000",
        "\u0000\u0000\u0000\u0000\u0000\u0000\u0000\u0000\u0000\u0000\u0000\u0000\u0000\u0000\u0000\u0000\u0000\u0000\u0000\u0000",
        "\u0000\u0000\u0000\u0000\u0000\u0000\u0000\u0000\u0000\u0000\u0000\u0000\u0000\u0000\u0000\u0000\u0000\u0000\u0000\u0000",
        "\u0000\u0000\u0000\u0000\u0000\u0000\u0000\u0000\u0000\u0000\u0000\u0000\u0000\u0000\u0000\u0000\u0000\u0000\u0000\u0000",
        "\u0000\u0000\u0000\u0000\u0000\u0000\u0000\u0000\u0000\u0000\u0000\u0000\u0000\u0000\u0000\u0000\u0000\u0000\u0000\u0000",
        "\u0000\u0000\u0000\u0000\u0000\u0000\u0000\u0000\u0000\u0000\u0000\u0000\u0000\u0000\u0000\u0000\u0000\u0000\u0000\u0000\u0000\u0000",
        "\u0000\u0000\u0000\u0000\u0000\u0000\u0000\u0000\u0000\u0000\u0000\u0000\u0000\u0000\u0000\u0000\u0000\u0000\u0000\u0000",
        "\u0000\u0000\u0000\u0000\u0000\u0000\u0000\u0000\u0000\u0000\u0000\u0000\u0000\u0000\u0000\u0000\u0000\u0000\u0000\u0000",
        "\u0000\u0000\u0000\u0000\u0000\u0000\u0000\u0000\u0000\u0000\u0000\u0000\u0000\u0000\u0000\u0000\u0000\u0000\u0000\u0000",
        "\u0000\u0000\u0000\u0000\u0000\u0000\u0000\u0000\u0000\u0000\u0000\u0000\u0000\u0000\u0000\u0000\u0000\u0000\u0000\u0000",
        "\u0000\u0000\u0000\u0000\u0000\u0000\u0000\u0000\u0000\u0000\u0000\u0000\u0000\u0000\u0000\u0000\u0000\u0000\u0000\u0000",
        "\u0000\u0000\u0000\u0000\u0000\u0000\u0000\u0000\u0000\u0000\u0000\u0000\u0000\u0000\u0000\u0000\u0000\u0000\u0000\u0000",
        "\u0000\u0000\u0000\u0000\u0000\u0000\u0000\u0000\u0000\u0000\u0000\u0000\u0000\u0000\u0000\u0000\u0000\u0000\u0000\u0000",
        "\u0000\u0000\u0000\u0000\u0000\u0000\u0000\u0000\u0000\u0000\u0000\u0000\u0000\u0000\u0000\u0000\u0000\u0000\u0000\u0000",
        "\u0000\u0000\u0000\u0000\u0000\u0000\u0000\u0000\u0000\u0000\u0000\u0000\u0000\u0000\u0000\u0000\u0000\u0000\u0000\u0000",
        "\u0000\u0000\u0000\u0000\u0000\u0000\u0000\u0000\u0000\u0000\u0000\u0000\u0000\u0000\u0000\u0000\u0000\u0000\u0000\u0000",
        "\u0000\u0000\u0000\u0000\u0000\u0000\u0000\u0000\u0000\u0000\u0000\u0000\u0000\u0000\u0000\u0000\u0000\u0000\u0000\u0000",
        "\u0000\u0000\u0000\u0000\u0000\u0000\u0000\u0000\u0000\u0000\u0000\u0000\u0000\u0000\u0000\u0000\u0000\u0000\u0000\u0000",
        "\u0000\u0000\u0000\u0000\u0000\u0000\u0000\u0000\u0000\u0000\u0000\u0000\u0000\u0000\u0000\u0000\u0000\u0000\u0000\u0000",
        "\u0000\u0000\u0000\u0000\u0000\u0000\u0000\u0000\u0000\u0000\u0000\u0000\u0000\u0000\u0000\u0000\u0000\u0000\u0000\u0000",
        "\u0000\u0000\u0000\u0000\u0000\u0000\u0000\u0000\u0000\u0000\u0000\u0000\u0000\u0000\u0000\u0000\u0000\u0000\u0000\u0000",
        "\u0000\u0000\u0000\u0000\u0000\u0000\u0000\u0000\u0000\u0000\u0000\u0000\u0000\u0000\u0000\u0000\u0000\u0000\u0000\u0000",
        "\u0000\u0000\u0000\u0000\u0000\u0000\u0000\u0000\u0000\u0000\u0000\u0000\u0000\u0000\u0000\u0000\u0000\u0000\u0000\u0000",
        "\u0000\u0000\u0000\u0000\u0000\u0000\u0000\u0000\u0000\u0000\u0000\u0000\u0000\u0000\u0000\u0000\u0000\u0000\u0000\u0000",
        "\u0000\u0000\u0000\u0000\u0000\u0000\u0000\u0000\u0000\u0000\u0000\u0000\u0000\u0000\u0000\u0000\u0000\u0000\u0000\u0000",
        "\u0000\u0000\u0000\u0000\u0000\u0000\u0000\u0000\u0000\u0000\u0000\u0000\u0000\u0000\u0000\u0000\u0000\u0000\u0000\u0000",
        "\u0000\u0000\u0000\u0000\u0000\u0000\u0000\u0000\u0000\u0000\u0000\u0000\u0000\u0000\u0000\u0000\u0000\u0000\u0000\u0000",
        "\u0000\u0000\u0000\u0000\u0000\u0000\u0000\u0000\u0000\u0000\u0000\u0000\u0000\u0000\u0000\u0000\u0000\u0000\u0000\u0000",
        "\u0000\u0000\u0000\u0000\u0000\u0000\u0000\u0000\u0000\u0000\u0000\u0000\u0000\u0000\u0000\u0000\u0000\u0000\u0000\u0000",
        "\u0000\u0000\u0000\u0000\u0000\u0000\u0000\u0000\u0000\u0000\u0000\u0000\u0000\u0000\u0000\u0000\u0000\u0000\u0000\u0000",
        "\u0000\u0000\u0000\u0000\u0000\u0000\u0000\u0000\u0000\u0000\u0000\u0000\u0000\u0000\u0000\u0000",
        "\u0000\u0000\u0000\u0000\u0000\u0000\u0000\u0000\u0000\u0000\u0000\u0000\u0000\u0000\u0000\u0000",
        "\u0000\u0000\u0000\u0000\u0000\u0000\u0000\u0000\u0000\u0000\u0000\u0000\u0000\u0000\u0000\u0000",
        "\u0000\u0000\u0000\u0000\u0000\u0000\u0000\u0000\u0000\u0000\u0000\u0000\u0000\u0000\u0000\u0000",
        "\u0000\u0000\u0000\u0000\u0000\u0000\u0000\u0000\u0000\u0000\u0000\u0000\u0000\u0000\u0000\u0000",
        "\u0000\u0000\u0000\u0000\u0000\u0000\u0000\u0000\u0000\u0000\u0000\u0000\u0000\u0000\u0000\u0000",
        "\u0000\u0000\u0000\u0000\u0000\u0000\u0000\u0000\u0000\u0000\u0000\u0000\u0000\u0000\u0000\u0000",
        "\u0000\u0000\u0000\u0000\u0000\u0000\u0000\u0000\u0000\u0000\u0000\u0000\u0000\u0000\u0000\u0000",
        "\u0000\u0000\u0000\u0000\u0000\u0000\u0000\u0000\u0000\u0000\u0000\u0000\u0000\u0000\u0000\u0000",
        "\u0000\u0000\u0000\u0000\u0000\u0000\u0000\u0000\u0000\u0000\u0000\u0000\u0000\u0000\u0000\u0000",
        "\u0000\u0000\u0000\u0000\u0000\u0000\u0000\u0000\u0000\u0000\u0000\u0000\u0000\u0000\u0000\u0000",
        "\u0000\u0000\u0000\u0000\u0000\u0000\u0000\u0000\u0000\u0000\u0000\u0000\u0000\u0000\u0000\u0000",
        "\u0000\u0000\u0000\u0000\u0000\u0000\u0000\u0000\u0000\u0000\u0000\u0000\u0000\u0000\u0000\u0000",
        "\u0000\u0000\u0000\u0000\u0000\u0000\u0000\u0000\u0000\u0000\u0000\u0000\u0000\u0000\u0000\u0000",
        "\u0000\u0000\u0000\u0000\u0000\u0000\u0000\u0000\u0000\u0000\u0000\u0000\u0000\u0000\u0000\u0000",
        "\u0000\u0000\u0000\u0000\u0000\u0000\u0000\u0000\u0000\u0000\u0000\u0000\u0000\u0000\u0000\u0000",
        "\u0000\u0000\u0000\u0000\u0000\u0000\u0000\u0000\u0000\u0000\u0000\u0000\u0000\u0000\u0000\u0000",
        "\u0000\u0000\u0000\u0000\u0000\u0000\u0000\u0000\u0000\u0000\u0000\u0000\u0000\u0000\u0000\u0000",
        "\u0000\u0000\u0000\u0000\u0000\u0000\u0000\u0000\u0000\u0000\u0000\u0000\u0000\u0000\u0000\u0000",
        "\u0000\u0000\u0000\u0000\u0000\u0000\u0000\u0000\u0000\u0000\u0000\u0000\u0000\u0000\u0000\u0000",
        "\u0000\u0000\u0000\u0000\u0000\u0000\u0000\u0000\u0000\u0000\u0000\u0000\u0000\u0000\u0000\u0000",
        "\u0000\u0000\u0000\u0000\u0000\u0000\u0000\u0000\u0000\u0000\u0000\u0000\u0000\u0000\u0000\u0000",
        "\u0000\u0000\u0000\u0000\u0000\u0000\u0000\u0000\u0000\u0000\u0000\u0000\u0000\u0000\u0000\u0000",
        "\u0000\u0000\u0000\u0000\u0000\u0000\u0000\u0000\u0000\u0000\u0000\u0000\u0000\u0000\u0000\u0000",
        "\u0000\u0000\u0000\u0000\u0000\u0000\u0000\u0000\u0000\u0000\u0000\u0000\u0000\u0000\u0000\u0000",
        "\u0000\u0000\u0000\u0000\u0000\u0000\u0000\u0000\u0000\u0000\u0000\u0000\u0000\u0000\u0000\u0000",
        "\u0000\u0000\u0000\u0000\u0000\u0000\u0000\u0000\u0000\u0000\u0000\u0000\u0000\u0000\u0000\u0000",
        "\u0000\u0000\u0000\u0000\u0000\u0000\u0000\u0000\u0000\u0000\u0000\u0000\u0000\u0000\u0000\u0000",
        "\u0000\u0000\u0000\u0000\u0000\u0000\u0000\u0000\u0000\u0000\u0000\u0000\u0000\u0000\u0000\u0000",
        "\u0000\u0000\u0000\u0000\u0000\u0000\u0000\u0000\u0000\u0000\u0000\u0000\u0000\u0000\u0000\u0000",
        "\u0000\u0000\u0000\u0000\u0000\u0000\u0000\u0000\u0000\u0000\u0000\u0000\u0000\u0000\u0000\u0000",
        "\u0000\u0000\u0000\u0000\u0000\u0000\u0000\u0000\u0000\u0000\u0000\u0000\u0000\u0000\u0000\u0000",
        "\u0000\u0000\u0000\u0000\u0000\u0000\u0000\u0000\u0000\u0000\u0000\u0000\u0000\u0000\u0000\u0000",
        "\u0000\u0000\u0000\u0000\u0000\u0000\u0000\u0000\u0000\u0000\u0000\u0000\u0000\u0000\u0000\u0000",
        "\u0000\u0000\u0000\u0000\u0000\u0000\u0000\u0000\u0000\u0000\u0000\u0000\u0000\u0000\u0000\u0000",
        "\u0000\u0000\u0000\u0000\u0000\u0000\u0000\u0000\u0000\u0000\u0000\u0000\u0000\u0000\u0000\u0000",
        "\u0000\u0000\u0000\u0000\u0000\u0000\u0000\u0000\u0000\u0000\u0000\u0000\u0000\u0000\u0000\u0000",
        "\u0000\u0000\u0000\u0000\u0000\u0000\u0000\u0000\u0000\u0000\u0000\u0000\u0000\u0000\u0000\u0000",
        "\u0000\u0000\u0000\u0000\u0000\u0000\u0000\u0000\u0000\u0000\u0000\u0000\u0000\u0000\u0000\u0000",
        "\u0000\u0000\u0000\u0000\u0000\u0000\u0000\u0000\u0000\u0000\u0000\u0000\u0000\u0000\u0000\u0000",
        "\u0000\u0000\u0000\u0000\u0000\u0000\u0000\u0000\u0000\u0000\u0000\u0000\u0000\u0000\u0000\u0000",
        "\u0000\u0000\u0000\u0000\u0000\u0000\u0000\u0000\u0000\u0000\u0000\u0000\u0000\u0000\u0000\u0000",
        "\u0000\u0000\u0000\u0000\u0000\u0000\u0000\u0000\u0000\u0000\u0000\u0000\u0000\u0000\u0000\u0000",
        "\u0000\u0000\u0000\u0000\u0000\u0000\u0000\u0000\u0000\u0000\u0000\u0000\u0000\u0000\u0000\u0000",
