{
  "AcquisitionMatrixPE": 70,
  "AcquisitionNumber": 1,
  "AcquisitionTime": "13:00:20.530000",
  "BandwidthPerPixelPhaseEncode": 51.948,
  "BaseResolution": 70,
  "BodyPartExamined": "HEAD",
  "CoilCombinationMethod": "Sum of Squares",
  "ConsistencyInfo": "N4_VE11C_LATEST_20160120",
  "ConversionSoftware": "dcm2niix",
  "ConversionSoftwareVersion": "v1.0.20220720",
  "DerivedVendorReportedEchoSpacing": 0.000550001,
  "DeviceSerialNumber": "66061",
  "DwellTime": 3.3e-06,
  "EchoTime": 0.022,
  "EchoTrainLength": 35,
  "EffectiveEchoSpacing": 0.000275,
  "FlipAngle": 90,
  "HeudiconvVersion": "1.1.1",
  "ImageOrientationPatientDICOM": [0.999751, 0.005304, 0.0216946, -0.00122139, 0.982921, -0.184024],
  "ImageOrientationText": "Tra>Cor(-10.6)>Sag(1.3)",
  "ImageType": [
    "ORIGINAL",
    "PRIMARY",
    "M",
    "ND",
    "NORM",
    "MOSAIC"
],
  "ImagingFrequency": 123.255,
  "InPlanePhaseEncodingDirectionDICOM": "COL",
  "InstitutionAddress": "Street StreetNo,City/1c4204/,District,KR,ZIP",
  "InstitutionName": "SKKU",
  "InstitutionalDepartmentName": "Department",
  "MRAcquisitionType": "2D",
  "MagneticFieldStrength": 3,
  "Manufacturer": "Siemens",
  "ManufacturersModelName": "Prisma",
  "MatrixCoilMode": "GRAPPA",
  "Modality": "MR",
  "NonlinearGradientCorrection": false,
  "ParallelReductionFactorInPlane": 2,
  "PartialFourier": 1,
  "PatientPosition": "HFS",
  "PercentPhaseFOV": 100,
  "PercentSampling": 100,
  "PhaseEncodingDirection": "j-",
  "PhaseEncodingSteps": 70,
  "PhaseResolution": 1,
  "PixelBandwidth": 2165,
  "ProcedureStepDescription": "Head^PI:Others",
  "ProtocolName": "BOLD_ep2d_3x3x3_dimension1",
  "PulseSequenceDetails": "%SiemensSeq%\\ep2d_pace",
  "ReceiveCoilActiveElements": "HC1-7",
  "ReceiveCoilName": "HeadNeck_64",
  "ReconMatrixPE": 70,
  "RefLinesPE": 24,
  "RepetitionTime": 2,
  "SAR": 0.125704,
  "ScanOptions": "FS",
  "ScanningSequence": "EP",
  "SequenceName": "*epfid2d1_70",
  "SequenceVariant": "SK",
  "SeriesDescription": "BOLD_ep2d_3x3x3_dimension1",
  "SeriesNumber": 4,
  "ShimSetting": [5038, 3757, 4381, 456, -119, 18, -187, 10],
  "SliceThickness": 3,
  "SliceTiming": [0.99, 0, 1.0375, 0.0475, 1.085, 0.095, 1.1325, 0.1425, 1.18, 0.19, 1.225, 0.2375, 1.2725, 0.2825, 1.32, 0.33, 1.3675, 0.3775, 1.415, 0.425, 1.4625, 0.4725, 1.51, 0.52, 1.555, 0.565, 1.6025, 0.6125, 1.65, 0.66, 1.6975, 0.7075, 1.745, 0.755, 1.7925, 0.8025, 1.84, 0.85, 1.885, 0.895, 1.9325, 0.9425],
  "SoftwareVersions": "syngo MR E11",
  "SpacingBetweenSlices": 3,
  "StationName": "AWP66061",
  "TaskName": "dimension",
  "TotalReadoutTime": 0.018975,
  "TxRefAmp": 221.362,
  "dcmmeta_affine": [
    [-2.9992516040802, -0.0036641699261963367, 0.06690052151679993, 104.99703979492188],
    [-0.015912000089883804, 2.948763132095337, -0.5518540740013123, -93.20148468017578],
    [0.06508390605449677, 0.5520712733268738, 2.948046922683716, -65.73668670654297],
    [0.0, 0.0, 0.0, 1.0]
],
  "dcmmeta_reorient_transform": [
    [0.0, -1.0, 0.0, 69.0],
    [1.0, 0.0, 0.0, 0.0],
    [0.0, 0.0, -1.0, 41.0],
    [0.0, 0.0, 0.0, 1.0]
],
  "dcmmeta_shape": [70, 70, 42, 437],
  "dcmmeta_slice_dim": 2,
  "dcmmeta_version": 0.6,
  "global": {
    "const": {
      "AcquisitionMatrix": [70, 0, 0, 70],
      "AngioFlag": "N",
      "BitsAllocated": 16,
      "BitsStored": 12,
      "BodyPartExamined": "HEAD",
      "Columns": 490,
      "EchoNumbers": 1,
      "EchoTime": 22.0,
      "EchoTrainLength": 35,
      "FlipAngle": 90.0,
      "HighBit": 11,
      "ImageOrientationPatient": [0.9997505740928, 0.00530400020139, 0.02169463488946, -0.0012213899633, 0.98292103834598, -0.1840237500526],
      "ImagePositionPatient": [-736.56052328749, -710.21892895182, 195.49350212294],
      "ImageType": [
        "ORIGINAL",
        "PRIMARY",
        "M",
        "ND",
        "NORM",
        "MOSAIC"
],
      "ImagedNucleus": "1H",
      "ImagingFrequency": 123.25463,
      "InPlanePhaseEncodingDirection": "COL",
      "MRAcquisitionType": "2D",
      "MagneticFieldStrength": 3.0,
      "Manufacturer": "SIEMENS",
      "ManufacturerModelName": "Prisma",
      "Modality": "MR",
      "NumberOfAverages": 1.0,
      "NumberOfPhaseEncodingSteps": 70,
      "PercentPhaseFieldOfView": 100.0,
      "PercentSampling": 100.0,
      "PerformedProcedureStepStartTime": "125135.982000",
      "PhotometricInterpretation": "MONOCHROME2",
      "PixelBandwidth": 2165.0,
      "PixelRepresentation": 0,
      "PixelSpacing": [3.0, 3.0],
      "ProtocolName": "BOLD_ep2d_3x3x3_dimension1",
      "RepetitionTime": 2000.0,
      "Rows": 490,
      "SAR": 0.12570382799846,
      "SamplesPerPixel": 1,
      "ScanOptions": "FS",
      "ScanningSequence": "EP",
      "SequenceName": "*epfid2d1_70",
      "SequenceVariant": "SK",
      "SeriesDescription": "BOLD_ep2d_3x3x3_dimension1",
      "SeriesNumber": 4,
      "SeriesTime": "130112.675000",
      "SliceLocation": 77.887710504643,
      "SliceThickness": 3.0,
      "SmallestImagePixelValue": 0,
      "SoftwareVersions": "syngo MR E11",
      "SpacingBetweenSlices": 2.9999999335094,
      "SpecificCharacterSet": "ISO_IR 100",
      "StudyID": "1",
      "StudyTime": "125135.891000",
      "TransmitCoilName": "Body",
      "VariableFlipAngleFlag": "N",
      "WindowCenterWidthExplanation": "Algo1",
      "dBdt": 0.0},
    "slices": {}
  },
  "time": {
    "samples": {
      "AcquisitionNumber": [1, 2, 3, 4, 5, 6, 7, 8, 9, 10, 11, 12, 13, 14, 15, 16, 17, 18, 19, 20, 21, 22, 23, 24, 25, 26, 27, 28, 29, 30, 31, 32, 33, 34, 35, 36, 37, 38, 39, 40, 41, 42, 43, 44, 45, 46, 47, 48, 49, 50, 51, 52, 53, 54, 55, 56, 57, 58, 59, 60, 61, 62, 63, 64, 65, 66, 67, 68, 69, 70, 71, 72, 73, 74, 75, 76, 77, 78, 79, 80, 81, 82, 83, 84, 85, 86, 87, 88, 89, 90, 91, 92, 93, 94, 95, 96, 97, 98, 99, 100, 101, 102, 103, 104, 105, 106, 107, 108, 109, 110, 111, 112, 113, 114, 115, 116, 117, 118, 119, 120, 121, 122, 123, 124, 125, 126, 127, 128, 129, 130, 131, 132, 133, 134, 135, 136, 137, 138, 139, 140, 141, 142, 143, 144, 145, 146, 147, 148, 149, 150, 151, 152, 153, 154, 155, 156, 157, 158, 159, 160, 161, 162, 163, 164, 165, 166, 167, 168, 169, 170, 171, 172, 173, 174, 175, 176, 177, 178, 179, 180, 181, 182, 183, 184, 185, 186, 187, 188, 189, 190, 191, 192, 193, 194, 195, 196, 197, 198, 199, 200, 201, 202, 203, 204, 205, 206, 207, 208, 209, 210, 211, 212, 213, 214, 215, 216, 217, 218, 219, 220, 221, 222, 223, 224, 225, 226, 227, 228, 229, 230, 231, 232, 233, 234, 235, 236, 237, 238, 239, 240, 241, 242, 243, 244, 245, 246, 247, 248, 249, 250, 251, 252, 253, 254, 255, 256, 257, 258, 259, 260, 261, 262, 263, 264, 265, 266, 267, 268, 269, 270, 271, 272, 273, 274, 275, 276, 277, 278, 279, 280, 281, 282, 283, 284, 285, 286, 287, 288, 289, 290, 291, 292, 293, 294, 295, 296, 297, 298, 299, 300, 301, 302, 303, 304, 305, 306, 307, 308, 309, 310, 311, 312, 313, 314, 315, 316, 317, 318, 319, 320, 321, 322, 323, 324, 325, 326, 327, 328, 329, 330, 331, 332, 333, 334, 335, 336, 337, 338, 339, 340, 341, 342, 343, 344, 345, 346, 347, 348, 349, 350, 351, 352, 353, 354, 355, 356, 357, 358, 359, 360, 361, 362, 363, 364, 365, 366, 367, 368, 369, 370, 371, 372, 373, 374, 375, 376, 377, 378, 379, 380, 381, 382, 383, 384, 385, 386, 387, 388, 389, 390, 391, 392, 393, 394, 395, 396, 397, 398, 399, 400, 401, 402, 403, 404, 405, 406, 407, 408, 409, 410, 411, 412, 413, 414, 415, 416, 417, 418, 419, 420, 421, 422, 423, 424, 425, 426, 427, 428, 429, 430, 431, 432, 433, 434, 435, 436, 437],
      "AcquisitionTime": ["130020.530000", "130022.530000", "130024.530000", "130026.530000", "130028.530000", "130030.530000", "130032.530000", "130034.530000", "130036.530000", "130038.530000", "130040.530000", "130042.530000", "130044.530000", "130046.530000", "130048.530000", "130050.530000", "130052.530000", "130054.530000", "130056.530000", "130058.530000", "130100.530000", "130102.530000", "130104.530000", "130106.530000", "130108.530000", "130110.530000", "130112.530000", "130114.530000", "130116.530000", "130118.530000", "130120.530000", "130122.530000", "130124.530000", "130126.530000", "130128.530000", "130130.530000", "130132.530000", "130134.530000", "130136.530000", "130138.530000", "130140.530000", "130142.530000", "130144.530000", "130146.530000", "130148.530000", "130150.530000", "130152.530000", "130154.530000", "130156.530000", "130158.530000", "130200.530000", "130202.530000", "130204.530000", "130206.530000", "130208.530000", "130210.530000", "130212.530000", "130214.530000", "130216.530000", "130218.530000", "130220.530000", "130222.530000", "130224.530000", "130226.530000", "130228.530000", "130230.530000", "130232.530000", "130234.530000", "130236.530000", "130238.530000", "130240.530000", "130242.530000", "130244.530000", "130246.530000", "130248.530000", "130250.530000", "130252.530000", "130254.530000", "130256.530000", "130258.530000", "130300.530000", "130302.530000", "130304.530000", "130306.530000", "130308.530000", "130310.530000", "130312.530000", "130314.530000", "130316.530000", "130318.530000", "130320.530000", "130322.530000", "130324.530000", "130326.530000", "130328.530000", "130330.530000", "130332.530000", "130334.530000", "130336.530000", "130338.530000", "130340.530000", "130342.530000", "130344.530000", "130346.530000", "130348.530000", "130350.530000", "130352.530000", "130354.530000", "130356.530000", "130358.530000", "130400.530000", "130402.530000", "130404.530000", "130406.530000", "130408.530000", "130410.530000", "130412.530000", "130414.530000", "130416.530000", "130418.530000", "130420.530000", "130422.530000", "130424.530000", "130426.530000", "130428.530000", "130430.530000", "130432.530000", "130434.530000", "130436.530000", "130438.530000", "130440.530000", "130442.530000", "130444.530000", "130446.530000", "130448.530000", "130450.530000", "130452.530000", "130454.530000", "130456.530000", "130458.530000", "130500.530000", "130502.530000", "130504.530000", "130506.530000", "130508.530000", "130510.530000", "130512.530000", "130514.530000", "130516.530000", "130518.530000", "130520.530000", "130522.530000", "130524.530000", "130526.530000", "130528.530000", "130530.530000", "130532.530000", "130534.530000", "130536.530000", "130538.530000", "130540.530000", "130542.530000", "130544.530000", "130546.530000", "130548.530000", "130550.530000", "130552.530000", "130554.530000", "130556.530000", "130558.530000", "130600.530000", "130602.530000", "130604.530000", "130606.530000", "130608.530000", "130610.530000", "130612.530000", "130614.530000", "130616.530000", "130618.530000", "130620.530000", "130622.530000", "130624.530000", "130626.530000", "130628.530000", "130630.530000", "130632.530000", "130634.530000", "130636.530000", "130638.530000", "130640.530000", "130642.530000", "130644.530000", "130646.530000", "130648.530000", "130650.530000", "130652.530000", "130654.530000", "130656.530000", "130658.530000", "130700.530000", "130702.530000", "130704.530000", "130706.530000", "130708.530000", "130710.530000", "130712.530000", "130714.530000", "130716.530000", "130718.530000", "130720.530000", "130722.530000", "130724.530000", "130726.530000", "130728.530000", "130730.530000", "130732.530000", "130734.530000", "130736.530000", "130738.530000", "130740.530000", "130742.530000", "130744.530000", "130746.530000", "130748.530000", "130750.530000", "130752.530000", "130754.530000", "130756.530000", "130758.530000", "130800.530000", "130802.530000", "130804.530000", "130806.530000", "130808.530000", "130810.530000", "130812.530000", "130814.530000", "130816.530000", "130818.530000", "130820.530000", "130822.530000", "130824.530000", "130826.530000", "130828.530000", "130830.530000", "130832.530000", "130834.530000", "130836.530000", "130838.530000", "130840.530000", "130842.530000", "130844.530000", "130846.530000", "130848.530000", "130850.530000", "130852.530000", "130854.530000", "130856.530000", "130858.530000", "130900.530000", "130902.530000", "130904.530000", "130906.530000", "130908.530000", "130910.530000", "130912.530000", "130914.530000", "130916.530000", "130918.530000", "130920.530000", "130922.530000", "130924.530000", "130926.530000", "130928.530000", "130930.530000", "130932.530000", "130934.530000", "130936.530000", "130938.530000", "130940.530000", "130942.530000", "130944.530000", "130946.530000", "130948.530000", "130950.530000", "130952.530000", "130954.530000", "130956.530000", "130958.530000", "131000.530000", "131002.530000", "131004.530000", "131006.530000", "131008.530000", "131010.530000", "131012.530000", "131014.530000", "131016.530000", "131018.530000", "131020.530000", "131022.530000", "131024.530000", "131026.530000", "131028.530000", "131030.530000", "131032.530000", "131034.530000", "131036.530000", "131038.530000", "131040.530000", "131042.530000", "131044.530000", "131046.530000", "131048.530000", "131050.530000", "131052.530000", "131054.530000", "131056.530000", "131058.530000", "131100.530000", "131102.530000", "131104.530000", "131106.530000", "131108.530000", "131110.530000", "131112.530000", "131114.530000", "131116.530000", "131118.530000", "131120.530000", "131122.530000", "131124.530000", "131126.530000", "131128.530000", "131130.530000", "131132.530000", "131134.530000", "131136.530000", "131138.530000", "131140.530000", "131142.530000", "131144.530000", "131146.530000", "131148.530000", "131150.530000", "131152.530000", "131154.530000", "131156.530000", "131158.530000", "131200.530000", "131202.530000", "131204.530000", "131206.530000", "131208.530000", "131210.530000", "131212.530000", "131214.530000", "131216.530000", "131218.530000", "131220.530000", "131222.530000", "131224.530000", "131226.530000", "131228.530000", "131230.530000", "131232.530000", "131234.530000", "131236.530000", "131238.530000", "131240.530000", "131242.530000", "131244.530000", "131246.530000", "131248.530000", "131250.530000", "131252.530000", "131254.530000", "131256.530000", "131258.530000", "131300.530000", "131302.530000", "131304.530000", "131306.530000", "131308.530000", "131310.530000", "131312.530000", "131314.530000", "131316.530000", "131318.530000", "131320.530000", "131322.530000", "131324.530000", "131326.530000", "131328.530000", "131330.530000", "131332.530000", "131334.530000", "131336.530000", "131338.530000", "131340.530000", "131342.530000", "131344.530000", "131346.530000", "131348.530000", "131350.530000", "131352.530000", "131354.530000", "131356.530000", "131358.530000", "131400.530000", "131402.530000", "131404.530000", "131406.530000", "131408.530000", "131410.530000", "131412.530000", "131414.530000", "131416.530000", "131418.530000", "131420.530000", "131422.530000", "131424.530000", "131426.530000", "131428.530000", "131430.530000", "131432.530000", "131434.530000", "131436.530000", "131438.530000", "131440.530000", "131442.530000", "131444.530000", "131446.530000", "131448.530000", "131450.530000", "131452.530000"],
      "ContentTime": ["130112.678000", "130112.682000", "130112.684000", "130112.687000", "130112.690000", "130112.692000", "130112.695000", "130112.698000", "130112.700000", "130112.703000", "130112.706000", "130112.708000", "130112.711000", "130112.714000", "130112.716000", "130112.719000", "130112.722000", "130112.724000", "130112.727000", "130112.730000", "130112.732000", "130112.735000", "130112.738000", "130112.740000", "130112.743000", "130112.746000", "130132.674000", "130132.677000", "130132.680000", "130132.682000", "130132.685000", "130132.688000", "130132.690000", "130132.693000", "130132.695000", "130132.698000", "130212.674000", "130212.676000", "130212.679000", "130212.682000", "130212.684000", "130212.687000", "130212.690000", "130212.693000", "130212.695000", "130212.698000", "130212.701000", "130212.703000", "130212.706000", "130212.709000", "130212.711000", "130212.714000", "130212.717000", "130212.719000", "130212.722000", "130212.725000", "130252.675000", "130252.678000", "130252.681000", "130252.684000", "130252.687000", "130252.689000", "130252.692000", "130252.694000", "130252.697000", "130252.700000", "130252.702000", "130252.705000", "130252.708000", "130252.710000", "130252.713000", "130252.716000", "130252.718000", "130252.721000", "130252.724000", "130252.726000", "130332.673000", "130332.676000", "130332.683000", "130332.686000", "130332.688000", "130332.691000", "130332.693000", "130332.696000", "130332.699000", "130332.710000", "130332.713000", "130332.715000", "130332.718000", "130332.721000", "130332.723000", "130332.726000", "130332.729000", "130332.731000", "130332.734000", "130332.737000", "130412.674000", "130412.676000", "130412.679000", "130412.682000", "130412.685000", "130412.687000", "130412.690000", "130412.693000", "130412.696000", "130412.698000", "130412.701000", "130412.704000", "130412.706000", "130412.709000", "130412.711000", "130412.714000", "130412.717000", "130412.720000", "130412.722000", "130412.725000", "130452.673000", "130452.676000", "130452.678000", "130452.681000", "130452.684000", "130452.686000", "130452.689000", "130452.692000", "130452.694000", "130452.697000", "130452.700000", "130452.702000", "130452.705000", "130452.708000", "130452.711000", "130452.713000", "130452.716000", "130452.718000", "130452.721000", "130452.724000", "130532.674000", "130532.676000", "130532.679000", "130532.682000", "130532.685000", "130532.687000", "130532.690000", "130532.693000", "130532.695000", "130532.698000", "130532.701000", "130532.703000", "130532.706000", "130532.709000", "130532.712000", "130532.714000", "130532.717000", "130532.719000", "130532.722000", "130532.725000", "130612.674000", "130612.677000", "130612.680000", "130612.682000", "130612.685000", "130612.687000", "130612.690000", "130612.693000", "130612.695000", "130612.698000", "130612.701000", "130612.704000", "130612.706000", "130612.709000", "130612.712000", "130612.714000", "130612.717000", "130612.720000", "130612.722000", "130612.725000", "130652.674000", "130652.677000", "130652.680000", "130652.682000", "130652.685000", "130652.687000", "130652.690000", "130652.693000", "130652.696000", "130652.698000", "130652.701000", "130652.704000", "130652.706000", "130652.709000", "130652.712000", "130652.715000", "130652.717000", "130652.720000", "130652.722000", "130652.725000", "130732.674000", "130732.677000", "130732.679000", "130732.682000", "130732.685000", "130732.687000", "130732.690000", "130732.693000", "130732.696000", "130732.698000", "130732.706000", "130732.709000", "130732.712000", "130732.714000", "130732.717000", "130732.720000", "130732.722000", "130732.725000", "130732.728000", "130732.730000", "130812.674000", "130812.677000", "130812.680000", "130812.682000", "130812.685000", "130812.688000", "130812.690000", "130812.693000", "130812.696000", "130812.698000", "130812.701000", "130812.704000", "130812.706000", "130812.709000", "130812.712000", "130812.714000", "130812.717000", "130812.720000", "130812.722000", "130812.725000", "130852.674000", "130852.677000", "130852.680000", "130852.682000", "130852.685000", "130852.687000", "130852.690000", "130852.693000", "130852.696000", "130852.698000", "130852.701000", "130852.704000", "130852.706000", "130852.709000", "130852.712000", "130852.714000", "130852.717000", "130852.720000", "130852.723000", "130852.725000", "130932.673000", "130932.676000", "130932.678000", "130932.681000", "130932.684000", "130932.686000", "130932.689000", "130932.692000", "130932.694000", "130932.697000", "130932.700000", "130932.703000", "130932.705000", "130932.708000", "130932.711000", "130932.713000", "130932.716000", "130932.719000", "130932.721000", "130932.724000", "131012.674000", "131012.677000", "131012.679000", "131012.682000", "131012.684000", "131012.687000", "131012.690000", "131012.693000", "131012.695000", "131012.698000", "131012.700000", "131012.703000", "131012.706000", "131012.712000", "131012.715000", "131012.717000", "131012.720000", "131012.723000", "131012.725000", "131012.728000", "131052.674000", "131052.677000", "131052.680000", "131052.682000", "131052.685000", "131052.688000", "131052.690000", "131052.693000", "131052.696000", "131052.699000", "131052.701000", "131052.704000", "131052.707000", "131052.710000", "131052.713000", "131052.715000", "131052.718000", "131052.721000", "131052.724000", "131052.726000", "131132.674000", "131132.677000", "131132.680000", "131132.682000", "131132.685000", "131132.688000", "131132.690000", "131132.703000", "131132.706000", "131132.709000", "131132.711000", "131132.714000", "131132.716000", "131132.719000", "131132.722000", "131132.724000", "131132.727000", "131132.730000", "131132.733000", "131132.735000", "131212.674000", "131212.677000", "131212.679000", "131212.682000", "131212.685000", "131212.688000", "131212.690000", "131212.693000", "131212.696000", "131212.698000", "131212.701000", "131212.704000", "131212.706000", "131212.709000", "131212.712000", "131212.714000", "131212.717000", "131212.720000", "131212.723000", "131212.725000", "131252.674000", "131252.677000", "131252.680000", "131252.682000", "131252.685000", "131252.688000", "131252.690000", "131252.693000", "131252.695000", "131252.698000", "131252.701000", "131252.704000", "131252.706000", "131252.709000", "131252.712000", "131252.714000", "131252.717000", "131252.720000", "131252.723000", "131252.725000", "131332.674000", "131332.677000", "131332.680000", "131332.682000", "131332.685000", "131332.688000", "131332.690000", "131332.693000", "131332.696000", "131332.698000", "131332.701000", "131332.704000", "131332.706000", "131332.709000", "131332.712000", "131332.714000", "131332.717000", "131332.720000", "131332.723000", "131332.725000", "131412.673000", "131412.676000", "131412.678000", "131412.681000", "131412.684000", "131412.687000", "131412.689000", "131412.692000", "131412.694000", "131412.697000", "131412.700000", "131412.703000", "131412.705000", "131412.708000", "131412.711000", "131412.713000", "131412.716000", "131412.719000", "131412.721000", "131412.724000", "131452.674000", "131452.677000", "131452.680000", "131452.682000", "131452.685000", "131452.688000", "131452.690000", "131452.693000", "131452.695000", "131452.698000", "131452.701000", "131452.704000", "131452.706000", "131452.709000", "131452.712000", "131452.714000", "131452.717000", "131452.720000", "131452.723000", "131452.725000", "131454.494000"],
      "DataSetTrailingPadding": [
        "\u0000\u0000\u0000\u0000\u0000\u0000\u0000\u0000\u0000\u0000\u0000\u0000\u0000\u0000\u0000\u0000\u0000\u0000\u0000\u0000\u0000\u0000\u0000\u0000\u0000\u0000\u0000\u0000\u0000\u0000\u0000\u0000\u0000\u0000\u0000\u0000\u0000\u0000\u0000\u0000\u0000\u0000\u0000\u0000\u0000\u0000\u0000\u0000\u0000\u0000\u0000\u0000\u0000\u0000\u0000\u0000\u0000\u0000\u0000\u0000\u0000\u0000\u0000\u0000\u0000\u0000\u0000\u0000\u0000\u0000\u0000\u0000\u0000\u0000\u0000\u0000\u0000\u0000\u0000\u0000\u0000\u0000\u0000\u0000\u0000\u0000\u0000\u0000\u0000\u0000\u0000\u0000\u0000\u0000\u0000\u0000\u0000\u0000\u0000\u0000\u0000\u0000\u0000\u0000\u0000\u0000\u0000\u0000\u0000\u0000\u0000\u0000\u0000\u0000\u0000\u0000\u0000\u0000\u0000\u0000\u0000\u0000\u0000\u0000\u0000\u0000\u0000\u0000\u0000\u0000\u0000\u0000\u0000\u0000\u0000\u0000\u0000\u0000\u0000\u0000\u0000\u0000\u0000\u0000\u0000\u0000\u0000\u0000\u0000\u0000\u0000\u0000\u0000\u0000\u0000\u0000\u0000\u0000\u0000\u0000\u0000\u0000\u0000\u0000\u0000\u0000\u0000\u0000\u0000\u0000\u0000\u0000\u0000\u0000\u0000\u0000\u0000\u0000\u0000\u0000\u0000\u0000\u0000\u0000\u0000\u0000\u0000\u0000\u0000\u0000\u0000\u0000\u0000\u0000\u0000\u0000\u0000\u0000\u0000\u0000\u0000\u0000\u0000\u0000\u0000\u0000\u0000\u0000\u0000\u0000\u0000\u0000\u0000\u0000\u0000\u0000\u0000\u0000\u0000\u0000\u0000\u0000\u0000\u0000\u0000\u0000\u0000\u0000\u0000\u0000\u0000\u0000\u0000\u0000\u0000\u0000\u0000\u0000\u0000\u0000\u0000\u0000\u0000\u0000\u0000\u0000\u0000\u0000\u0000\u0000\u0000\u0000\u0000\u0000\u0000\u0000\u0000\u0000\u0000\u0000\u0000\u0000\u0000\u0000\u0000\u0000\u0000\u0000\u0000\u0000\u0000\u0000\u0000\u0000\u0000\u0000\u0000\u0000\u0000\u0000\u0000\u0000\u0000\u0000\u0000\u0000\u0000\u0000\u0000\u0000\u0000\u0000\u0000\u0000\u0000\u0000",
        "\u0000\u0000\u0000\u0000\u0000\u0000\u0000\u0000\u0000\u0000\u0000\u0000\u0000\u0000\u0000\u0000\u0000\u0000\u0000\u0000\u0000\u0000\u0000\u0000\u0000\u0000\u0000\u0000\u0000\u0000\u0000\u0000\u0000\u0000\u0000\u0000\u0000\u0000\u0000\u0000\u0000\u0000\u0000\u0000\u0000\u0000\u0000\u0000\u0000\u0000\u0000\u0000\u0000\u0000\u0000\u0000\u0000\u0000\u0000\u0000\u0000\u0000\u0000\u0000\u0000\u0000\u0000\u0000\u0000\u0000\u0000\u0000\u0000\u0000\u0000\u0000\u0000\u0000\u0000\u0000\u0000\u0000\u0000\u0000\u0000\u0000\u0000\u0000\u0000\u0000\u0000\u0000\u0000\u0000\u0000\u0000\u0000\u0000\u0000\u0000\u0000\u0000\u0000\u0000\u0000\u0000\u0000\u0000\u0000\u0000\u0000\u0000\u0000\u0000\u0000\u0000\u0000\u0000\u0000\u0000\u0000\u0000\u0000\u0000\u0000\u0000\u0000\u0000\u0000\u0000\u0000\u0000\u0000\u0000\u0000\u0000\u0000\u0000\u0000\u0000\u0000\u0000\u0000\u0000\u0000\u0000\u0000\u0000\u0000\u0000\u0000\u0000\u0000\u0000\u0000\u0000\u0000\u0000\u0000\u0000\u0000\u0000\u0000\u0000\u0000\u0000\u0000\u0000\u0000\u0000\u0000\u0000\u0000\u0000\u0000\u0000\u0000\u0000\u0000\u0000\u0000\u0000\u0000\u0000\u0000\u0000\u0000\u0000\u0000\u0000\u0000\u0000\u0000\u0000\u0000\u0000\u0000\u0000\u0000\u0000\u0000\u0000\u0000\u0000\u0000\u0000\u0000\u0000\u0000\u0000\u0000\u0000\u0000\u0000\u0000\u0000\u0000\u0000\u0000\u0000\u0000\u0000\u0000\u0000\u0000\u0000\u0000\u0000\u0000\u0000\u0000\u0000\u0000\u0000\u0000\u0000\u0000\u0000\u0000\u0000\u0000\u0000\u0000\u0000\u0000\u0000\u0000\u0000\u0000\u0000\u0000\u0000\u0000\u0000\u0000\u0000\u0000\u0000\u0000\u0000\u0000\u0000\u0000\u0000\u0000\u0000\u0000\u0000\u0000\u0000\u0000\u0000\u0000\u0000\u0000\u0000\u0000\u0000\u0000\u0000\u0000\u0000\u0000\u0000\u0000\u0000\u0000\u0000\u0000\u0000\u0000\u0000\u0000\u0000\u0000\u0000",
        "\u0000\u0000\u0000\u0000\u0000\u0000\u0000\u0000\u0000\u0000\u0000\u0000\u0000\u0000\u0000\u0000\u0000\u0000\u0000\u0000\u0000\u0000\u0000\u0000\u0000\u0000\u0000\u0000\u0000\u0000\u0000\u0000\u0000\u0000\u0000\u0000\u0000\u0000\u0000\u0000\u0000\u0000\u0000\u0000\u0000\u0000\u0000\u0000\u0000\u0000\u0000\u0000\u0000\u0000\u0000\u0000\u0000\u0000\u0000\u0000\u0000\u0000\u0000\u0000\u0000\u0000\u0000\u0000\u0000\u0000\u0000\u0000\u0000\u0000\u0000\u0000\u0000\u0000\u0000\u0000\u0000\u0000\u0000\u0000\u0000\u0000\u0000\u0000\u0000\u0000\u0000\u0000\u0000\u0000\u0000\u0000\u0000\u0000\u0000\u0000\u0000\u0000\u0000\u0000\u0000\u0000\u0000\u0000\u0000\u0000\u0000\u0000\u0000\u0000\u0000\u0000\u0000\u0000\u0000\u0000\u0000\u0000\u0000\u0000\u0000\u0000\u0000\u0000\u0000\u0000\u0000\u0000\u0000\u0000\u0000\u0000\u0000\u0000\u0000\u0000\u0000\u0000\u0000\u0000\u0000\u0000\u0000\u0000\u0000\u0000\u0000\u0000\u0000\u0000\u0000\u0000\u0000\u0000\u0000\u0000\u0000\u0000\u0000\u0000\u0000\u0000\u0000\u0000\u0000\u0000\u0000\u0000\u0000\u0000\u0000\u0000\u0000\u0000\u0000\u0000\u0000\u0000\u0000\u0000\u0000\u0000\u0000\u0000\u0000\u0000\u0000\u0000\u0000\u0000\u0000\u0000\u0000\u0000\u0000\u0000\u0000\u0000\u0000\u0000\u0000\u0000\u0000\u0000\u0000\u0000\u0000\u0000\u0000\u0000\u0000\u0000\u0000\u0000\u0000\u0000\u0000\u0000\u0000\u0000\u0000\u0000\u0000\u0000\u0000\u0000\u0000\u0000\u0000\u0000\u0000\u0000\u0000\u0000\u0000\u0000\u0000\u0000\u0000\u0000\u0000\u0000\u0000\u0000\u0000\u0000\u0000\u0000\u0000\u0000\u0000\u0000\u0000\u0000\u0000\u0000\u0000\u0000\u0000\u0000\u0000\u0000\u0000\u0000\u0000\u0000\u0000\u0000\u0000\u0000\u0000\u0000\u0000\u0000\u0000\u0000\u0000\u0000\u0000\u0000\u0000\u0000\u0000\u0000\u0000\u0000\u0000\u0000\u0000\u0000\u0000\u0000",
        "\u0000\u0000\u0000\u0000\u0000\u0000\u0000\u0000\u0000\u0000\u0000\u0000\u0000\u0000\u0000\u0000\u0000\u0000\u0000\u0000\u0000\u0000\u0000\u0000\u0000\u0000\u0000\u0000\u0000\u0000\u0000\u0000\u0000\u0000\u0000\u0000\u0000\u0000\u0000\u0000\u0000\u0000\u0000\u0000\u0000\u0000\u0000\u0000\u0000\u0000\u0000\u0000\u0000\u0000\u0000\u0000\u0000\u0000\u0000\u0000\u0000\u0000\u0000\u0000\u0000\u0000\u0000\u0000\u0000\u0000\u0000\u0000\u0000\u0000\u0000\u0000\u0000\u0000\u0000\u0000\u0000\u0000\u0000\u0000\u0000\u0000\u0000\u0000\u0000\u0000\u0000\u0000\u0000\u0000\u0000\u0000\u0000\u0000\u0000\u0000\u0000\u0000\u0000\u0000\u0000\u0000\u0000\u0000\u0000\u0000\u0000\u0000\u0000\u0000\u0000\u0000\u0000\u0000\u0000\u0000\u0000\u0000\u0000\u0000\u0000\u0000\u0000\u0000\u0000\u0000\u0000\u0000\u0000\u0000\u0000\u0000\u0000\u0000\u0000\u0000\u0000\u0000\u0000\u0000\u0000\u0000\u0000\u0000\u0000\u0000\u0000\u0000\u0000\u0000\u0000\u0000\u0000\u0000\u0000\u0000\u0000\u0000\u0000\u0000\u0000\u0000\u0000\u0000\u0000\u0000\u0000\u0000\u0000\u0000\u0000\u0000\u0000\u0000\u0000\u0000\u0000\u0000\u0000\u0000\u0000\u0000\u0000\u0000\u0000\u0000\u0000\u0000\u0000\u0000\u0000\u0000\u0000\u0000\u0000\u0000\u0000\u0000\u0000\u0000\u0000\u0000\u0000\u0000\u0000\u0000\u0000\u0000\u0000\u0000\u0000\u0000\u0000\u0000\u0000\u0000\u0000\u0000\u0000\u0000\u0000\u0000\u0000\u0000\u0000\u0000\u0000\u0000\u0000\u0000\u0000\u0000\u0000\u0000\u0000\u0000\u0000\u0000\u0000\u0000\u0000\u0000\u0000\u0000\u0000\u0000\u0000\u0000\u0000\u0000\u0000\u0000\u0000\u0000\u0000\u0000\u0000\u0000\u0000\u0000\u0000\u0000\u0000\u0000\u0000\u0000\u0000\u0000\u0000\u0000\u0000\u0000\u0000\u0000\u0000\u0000\u0000\u0000\u0000\u0000\u0000\u0000\u0000\u0000\u0000\u0000\u0000\u0000\u0000\u0000\u0000\u0000",
