{
  "AcquisitionMatrixPE": 70,
  "AcquisitionNumber": 1,
  "AcquisitionTime": "15:00:58.520000",
  "BandwidthPerPixelPhaseEncode": 51.948,
  "BaseResolution": 70,
  "BodyPartExamined": "HEAD",
  "CoilCombinationMethod": "Sum of Squares",
  "ConsistencyInfo": "N4_VE11C_LATEST_20160120",
  "ConversionSoftware": "dcm2niix",
  "ConversionSoftwareVersion": "v1.0.20220720",
  "DerivedVendorReportedEchoSpacing": 0.000550001,
  "DeviceSerialNumber": "66061",
  "DwellTime": 3.3e-06,
  "EchoTime": 0.022,
  "EchoTrainLength": 35,
  "EffectiveEchoSpacing": 0.000275,
  "FlipAngle": 90,
  "HeudiconvVersion": "1.1.1",
  "ImageOrientationPatientDICOM": [0.998585, 0.0126213, 0.0516502, -0.00121995, 0.976601, -0.215057],
  "ImageOrientationText": "Tra>Cor(-12.4)>Sag(3.0)",
  "ImageType": [
    "ORIGINAL",
    "PRIMARY",
    "M",
    "ND",
    "NORM",
    "MOSAIC"
],
  "ImagingFrequency": 123.254,
  "InPlanePhaseEncodingDirectionDICOM": "COL",
  "InstitutionAddress": "Street StreetNo,City/1c4204/,District,KR,ZIP",
  "InstitutionName": "SKKU",
  "InstitutionalDepartmentName": "Department",
  "MRAcquisitionType": "2D",
  "MagneticFieldStrength": 3,
  "Manufacturer": "Siemens",
  "ManufacturersModelName": "Prisma",
  "MatrixCoilMode": "GRAPPA",
  "Modality": "MR",
  "NonlinearGradientCorrection": false,
  "ParallelReductionFactorInPlane": 2,
  "PartialFourier": 1,
  "PatientPosition": "HFS",
  "PercentPhaseFOV": 100,
  "PercentSampling": 100,
  "PhaseEncodingDirection": "j-",
  "PhaseEncodingSteps": 70,
  "PhaseResolution": 1,
  "PixelBandwidth": 2165,
  "ProcedureStepDescription": "Head^PI:Others",
  "ProtocolName": "BOLD_ep2d_3x3x3_response2",
  "PulseSequenceDetails": "%SiemensSeq%\\ep2d_pace",
  "ReceiveCoilActiveElements": "HC1-7",
  "ReceiveCoilName": "HeadNeck_64",
  "ReconMatrixPE": 70,
  "RefLinesPE": 24,
  "RepetitionTime": 2,
  "SAR": 0.11935,
  "ScanOptions": "FS",
  "ScanningSequence": "EP",
  "SequenceName": "*epfid2d1_70",
  "SequenceVariant": "SK",
  "SeriesDescription": "BOLD_ep2d_3x3x3_response2",
  "SeriesNumber": 5,
  "ShimSetting": [5055, 3701, 4392, 326, -43, -107, -15, -11],
  "SliceThickness": 3,
  "SliceTiming": [0.99, 0, 1.0375, 0.0475, 1.0825, 0.0925, 1.13, 0.14, 1.1775, 0.1875, 1.225, 0.235, 1.2725, 0.2825, 1.32, 0.33, 1.3675, 0.3775, 1.4125, 0.4225, 1.46, 0.47, 1.5075, 0.5175, 1.555, 0.565, 1.6025, 0.6125, 1.65, 0.66, 1.6975, 0.7075, 1.7425, 0.7525, 1.79, 0.8, 1.8375, 0.8475, 1.885, 0.895, 1.9325, 0.9425],
  "SoftwareVersions": "syngo MR E11",
  "SpacingBetweenSlices": 3,
  "StationName": "AWP66061",
  "TaskName": "response",
  "TotalReadoutTime": 0.018975,
  "TxRefAmp": 242.78,
  "dcmmeta_affine": [
    [-2.9957563877105713, -0.0036598388105630875, 0.1594678908586502, 106.99334716796875],
    [-0.037863947451114655, 2.9298019409179688, -0.6440704464912415, -80.25566101074219],
    [0.15495072305202484, 0.6451720595359802, 2.925703763961792, -74.55545806884766],
    [0.0, 0.0, 0.0, 1.0]
],
  "dcmmeta_reorient_transform": [
    [0.0, -1.0, 0.0, 69.0],
    [1.0, 0.0, 0.0, 0.0],
    [0.0, 0.0, -1.0, 41.0],
    [0.0, 0.0, 0.0, 1.0]
],
  "dcmmeta_shape": [70, 70, 42, 341],
  "dcmmeta_slice_dim": 2,
  "dcmmeta_version": 0.6,
  "global": {
    "const": {
      "AcquisitionMatrix": [70, 0, 0, 70],
      "AngioFlag": "N",
      "BitsAllocated": 16,
      "BitsStored": 12,
      "BodyPartExamined": "HEAD",
      "Columns": 490,
      "EchoNumbers": 1,
      "EchoTime": 22.0,
      "EchoTrainLength": 35,
      "FlipAngle": 90.0,
      "HighBit": 11,
      "ImageOrientationPatient": [0.99858547705694, 0.01262131553166, 0.05165024109533, -0.0012199462625, 0.97660065748565, -0.215057358697],
      "ImagePositionPatient": [-741.61928628106, -718.70363272693, 192.86175402022],
      "ImageType": [
        "ORIGINAL",
        "PRIMARY",
        "M",
        "ND",
        "NORM",
        "MOSAIC"
],
      "ImagedNucleus": "1H",
      "ImagingFrequency": 123.254491,
      "InPlanePhaseEncodingDirection": "COL",
      "MRAcquisitionType": "2D",
      "MagneticFieldStrength": 3.0,
      "Manufacturer": "SIEMENS",
      "ManufacturerModelName": "Prisma",
      "Modality": "MR",
      "NumberOfAverages": 1.0,
      "NumberOfPhaseEncodingSteps": 70,
      "PercentPhaseFieldOfView": 100.0,
      "PercentSampling": 100.0,
      "PerformedProcedureStepStartTime": "141912.735000",
      "PhotometricInterpretation": "MONOCHROME2",
      "PixelBandwidth": 2165.0,
      "PixelRepresentation": 0,
      "PixelSpacing": [3.0, 3.0],
      "ProtocolName": "BOLD_ep2d_3x3x3_response2",
      "RepetitionTime": 2000.0,
      "Rows": 490,
      "SAR": 0.11935033980021,
      "SamplesPerPixel": 1,
      "ScanOptions": "FS",
      "ScanningSequence": "EP",
      "SequenceName": "*epfid2d1_70",
      "SequenceVariant": "SK",
      "SeriesDescription": "BOLD_ep2d_3x3x3_response2",
      "SeriesNumber": 5,
      "SeriesTime": "150149.769000",
      "SliceLocation": 73.208364341305,
      "SliceThickness": 3.0,
      "SmallestImagePixelValue": 0,
      "SoftwareVersions": "syngo MR E11",
      "SpacingBetweenSlices": 2.9999999569623,
      "SpecificCharacterSet": "ISO_IR 100",
      "StudyID": "1",
      "StudyTime": "141912.653000",
      "TransmitCoilName": "Body",
      "VariableFlipAngleFlag": "N",
      "WindowCenterWidthExplanation": "Algo1",
      "dBdt": 0.0},
    "slices": {}
  },
  "time": {
    "samples": {
      "AcquisitionNumber": [1, 2, 3, 4, 5, 6, 7, 8, 9, 10, 11, 12, 13, 14, 15, 16, 17, 18, 19, 20, 21, 22, 23, 24, 25, 26, 27, 28, 29, 30, 31, 32, 33, 34, 35, 36, 37, 38, 39, 40, 41, 42, 43, 44, 45, 46, 47, 48, 49, 50, 51, 52, 53, 54, 55, 56, 57, 58, 59, 60, 61, 62, 63, 64, 65, 66, 67, 68, 69, 70, 71, 72, 73, 74, 75, 76, 77, 78, 79, 80, 81, 82, 83, 84, 85, 86, 87, 88, 89, 90, 91, 92, 93, 94, 95, 96, 97, 98, 99, 100, 101, 102, 103, 104, 105, 106, 107, 108, 109, 110, 111, 112, 113, 114, 115, 116, 117, 118, 119, 120, 121, 122, 123, 124, 125, 126, 127, 128, 129, 130, 131, 132, 133, 134, 135, 136, 137, 138, 139, 140, 141, 142, 143, 144, 145, 146, 147, 148, 149, 150, 151, 152, 153, 154, 155, 156, 157, 158, 159, 160, 161, 162, 163, 164, 165, 166, 167, 168, 169, 170, 171, 172, 173, 174, 175, 176, 177, 178, 179, 180, 181, 182, 183, 184, 185, 186, 187, 188, 189, 190, 191, 192, 193, 194, 195, 196, 197, 198, 199, 200, 201, 202, 203, 204, 205, 206, 207, 208, 209, 210, 211, 212, 213, 214, 215, 216, 217, 218, 219, 220, 221, 222, 223, 224, 225, 226, 227, 228, 229, 230, 231, 232, 233, 234, 235, 236, 237, 238, 239, 240, 241, 242, 243, 244, 245, 246, 247, 248, 249, 250, 251, 252, 253, 254, 255, 256, 257, 258, 259, 260, 261, 262, 263, 264, 265, 266, 267, 268, 269, 270, 271, 272, 273, 274, 275, 276, 277, 278, 279, 280, 281, 282, 283, 284, 285, 286, 287, 288, 289, 290, 291, 292, 293, 294, 295, 296, 297, 298, 299, 300, 301, 302, 303, 304, 305, 306, 307, 308, 309, 310, 311, 312, 313, 314, 315, 316, 317, 318, 319, 320, 321, 322, 323, 324, 325, 326, 327, 328, 329, 330, 331, 332, 333, 334, 335, 336, 337, 338, 339, 340, 341],
      "AcquisitionTime": ["150058.520000", "150100.520000", "150102.520000", "150104.520000", "150106.520000", "150108.520000", "150110.520000", "150112.520000", "150114.520000", "150116.520000", "150118.520000", "150120.520000", "150122.520000", "150124.520000", "150126.520000", "150128.520000", "150130.520000", "150132.520000", "150134.520000", "150136.520000", "150138.520000", "150140.520000", "150142.520000", "150144.520000", "150146.520000", "150148.520000", "150150.520000", "150152.520000", "150154.520000", "150156.520000", "150158.520000", "150200.520000", "150202.520000", "150204.520000", "150206.520000", "150208.520000", "150210.520000", "150212.520000", "150214.520000", "150216.520000", "150218.520000", "150220.520000", "150222.520000", "150224.520000", "150226.520000", "150228.520000", "150230.520000", "150232.520000", "150234.520000", "150236.520000", "150238.520000", "150240.520000", "150242.520000", "150244.520000", "150246.520000", "150248.520000", "150250.520000", "150252.520000", "150254.520000", "150256.520000", "150258.520000", "150300.520000", "150302.520000", "150304.520000", "150306.520000", "150308.520000", "150310.520000", "150312.520000", "150314.520000", "150316.520000", "150318.520000", "150320.520000", "150322.520000", "150324.520000", "150326.520000", "150328.520000", "150330.520000", "150332.520000", "150334.520000", "150336.520000", "150338.520000", "150340.520000", "150342.520000", "150344.520000", "150346.520000", "150348.520000", "150350.520000", "150352.520000", "150354.520000", "150356.520000", "150358.520000", "150400.520000", "150402.520000", "150404.520000", "150406.520000", "150408.520000", "150410.520000", "150412.520000", "150414.520000", "150416.520000", "150418.520000", "150420.520000", "150422.520000", "150424.520000", "150426.520000", "150428.520000", "150430.520000", "150432.520000", "150434.520000", "150436.520000", "150438.520000", "150440.520000", "150442.520000", "150444.520000", "150446.520000", "150448.520000", "150450.520000", "150452.520000", "150454.520000", "150456.520000", "150458.520000", "150500.520000", "150502.520000", "150504.520000", "150506.520000", "150508.520000", "150510.520000", "150512.520000", "150514.520000", "150516.520000", "150518.520000", "150520.520000", "150522.520000", "150524.520000", "150526.520000", "150528.520000", "150530.520000", "150532.520000", "150534.520000", "150536.520000", "150538.520000", "150540.520000", "150542.520000", "150544.520000", "150546.520000", "150548.520000", "150550.520000", "150552.520000", "150554.520000", "150556.520000", "150558.520000", "150600.520000", "150602.520000", "150604.520000", "150606.520000", "150608.520000", "150610.520000", "150612.520000", "150614.520000", "150616.520000", "150618.520000", "150620.520000", "150622.520000", "150624.520000", "150626.520000", "150628.520000", "150630.520000", "150632.520000", "150634.520000", "150636.520000", "150638.520000", "150640.520000", "150642.520000", "150644.520000", "150646.520000", "150648.520000", "150650.520000", "150652.520000", "150654.520000", "150656.520000", "150658.520000", "150700.520000", "150702.520000", "150704.520000", "150706.520000", "150708.520000", "150710.520000", "150712.520000", "150714.520000", "150716.520000", "150718.520000", "150720.520000", "150722.520000", "150724.520000", "150726.520000", "150728.520000", "150730.520000", "150732.520000", "150734.520000", "150736.520000", "150738.520000", "150740.520000", "150742.520000", "150744.520000", "150746.520000", "150748.520000", "150750.520000", "150752.520000", "150754.520000", "150756.520000", "150758.520000", "150800.520000", "150802.520000", "150804.520000", "150806.520000", "150808.520000", "150810.520000", "150812.520000", "150814.520000", "150816.520000", "150818.520000", "150820.520000", "150822.520000", "150824.520000", "150826.520000", "150828.520000", "150830.520000", "150832.520000", "150834.520000", "150836.520000", "150838.520000", "150840.520000", "150842.520000", "150844.520000", "150846.520000", "150848.520000", "150850.520000", "150852.520000", "150854.520000", "150856.520000", "150858.520000", "150900.520000", "150902.520000", "150904.520000", "150906.520000", "150908.520000", "150910.520000", "150912.520000", "150914.520000", "150916.520000", "150918.520000", "150920.520000", "150922.520000", "150924.520000", "150926.520000", "150928.520000", "150930.520000", "150932.520000", "150934.520000", "150936.520000", "150938.520000", "150940.520000", "150942.520000", "150944.520000", "150946.520000", "150948.520000", "150950.520000", "150952.520000", "150954.520000", "150956.520000", "150958.520000", "151000.520000", "151002.520000", "151004.520000", "151006.520000", "151008.520000", "151010.520000", "151012.520000", "151014.520000", "151016.520000", "151018.520000", "151020.520000", "151022.520000", "151024.520000", "151026.520000", "151028.520000", "151030.520000", "151032.520000", "151034.520000", "151036.520000", "151038.520000", "151040.520000", "151042.520000", "151044.520000", "151046.520000", "151048.520000", "151050.520000", "151052.520000", "151054.520000", "151056.520000", "151058.520000", "151100.520000", "151102.520000", "151104.520000", "151106.520000", "151108.520000", "151110.520000", "151112.520000", "151114.520000", "151116.520000", "151118.520000", "151120.520000", "151122.520000", "151124.520000", "151126.520000", "151128.520000", "151130.520000", "151132.520000", "151134.520000", "151136.520000", "151138.520000", "151140.520000", "151142.520000", "151144.520000", "151146.520000", "151148.520000", "151150.520000", "151152.520000", "151154.520000", "151156.520000", "151158.520000", "151200.520000", "151202.520000", "151204.520000", "151206.520000", "151208.520000", "151210.520000", "151212.520000", "151214.520000", "151216.520000", "151218.520000"],
      "ContentTime": ["150149.772000", "150149.776000", "150149.778000", "150149.781000", "150149.784000", "150149.786000", "150149.789000", "150149.791000", "150149.794000", "150149.797000", "150149.799000", "150149.802000", "150149.805000", "150149.807000", "150149.810000", "150149.821000", "150149.824000", "150149.827000", "150149.829000", "150149.835000", "150149.837000", "150149.840000", "150149.842000", "150149.845000", "150149.848000", "150229.769000", "150229.771000", "150229.774000", "150229.777000", "150229.779000", "150229.782000", "150229.785000", "150229.787000", "150229.790000", "150229.793000", "150229.795000", "150229.798000", "150229.801000", "150229.803000", "150229.806000", "150229.809000", "150229.811000", "150229.814000", "150229.816000", "150229.819000", "150309.769000", "150309.771000", "150309.774000", "150309.777000", "150309.779000", "150309.782000", "150309.785000", "150309.787000", "150309.790000", "150309.793000", "150309.795000", "150309.798000", "150309.801000", "150309.803000", "150309.806000", "150309.808000", "150309.811000", "150309.814000", "150309.816000", "150309.819000", "150349.768000", "150349.770000", "150349.773000", "150349.776000", "150349.779000", "150349.781000", "150349.784000", "150349.786000", "150349.789000", "150349.792000", "150349.794000", "150349.797000", "150349.800000", "150349.802000", "150349.805000", "150349.808000", "150349.810000", "150349.813000", "150349.815000", "150349.818000", "150429.768000", "150429.770000", "150429.773000", "150429.776000", "150429.778000", "150429.781000", "150429.784000", "150429.786000", "150429.789000", "150429.792000", "150429.794000", "150429.797000", "150429.799000", "150429.802000", "150429.805000", "150429.807000", "150429.810000", "150429.813000", "150429.815000", "150429.818000", "150509.769000", "150509.771000", "150509.774000", "150509.777000", "150509.779000", "150509.782000", "150509.785000", "150509.787000", "150509.790000", "150509.793000", "150509.795000", "150509.798000", "150509.800000", "150509.803000", "150509.806000", "150509.808000", "150509.811000", "150509.814000", "150509.816000", "150509.819000", "150549.767000", "150549.770000", "150549.773000", "150549.776000", "150549.778000", "150549.781000", "150549.784000", "150549.786000", "150549.789000", "150549.792000", "150549.794000", "150549.797000", "150549.800000", "150549.802000", "150549.805000", "150549.808000", "150549.810000", "150549.813000", "150549.815000", "150549.818000", "150629.768000", "150629.771000", "150629.773000", "150629.776000", "150629.779000", "150629.782000", "150629.784000", "150629.787000", "150629.790000", "150629.792000", "150629.795000", "150629.798000", "150629.800000", "150629.803000", "150629.806000", "150629.808000", "150629.811000", "150629.813000", "150629.816000", "150629.819000", "150709.769000", "150709.772000", "150709.774000", "150709.777000", "150709.780000", "150709.782000", "150709.785000", "150709.787000", "150709.790000", "150709.793000", "150709.795000", "150709.798000", "150709.801000", "150709.803000", "150709.806000", "150709.809000", "150709.811000", "150709.814000", "150709.816000", "150709.819000", "150749.769000", "150749.771000", "150749.774000", "150749.777000", "150749.779000", "150749.782000", "150749.785000", "150749.787000", "150749.790000", "150749.793000", "150749.795000", "150749.798000", "150749.801000", "150749.803000", "150749.806000", "150749.809000", "150749.811000", "150749.814000", "150749.816000", "150749.819000", "150829.768000", "150829.771000", "150829.773000", "150829.776000", "150829.779000", "150829.781000", "150829.784000", "150829.786000", "150829.789000", "150829.792000", "150829.795000", "150829.797000", "150829.800000", "150829.802000", "150829.805000", "150829.808000", "150829.811000", "150829.814000", "150829.816000", "150829.819000", "150849.768000", "150849.770000", "150849.773000", "150849.776000", "150849.779000", "150849.781000", "150849.784000", "150849.786000", "150849.789000", "150849.792000", "150929.769000", "150929.771000", "150929.774000", "150929.777000", "150929.779000", "150929.782000", "150929.785000", "150929.787000", "150929.790000", "150929.793000", "150929.795000", "150929.798000", "150929.801000", "150929.803000", "150929.806000", "150929.809000", "150929.811000", "150929.814000", "150929.817000", "150929.819000", "151009.769000", "151009.771000", "151009.774000", "151009.777000", "151009.779000", "151009.782000", "151009.785000", "151009.787000", "151009.790000", "151009.793000", "151009.795000", "151009.798000", "151009.800000", "151009.803000", "151009.806000", "151009.808000", "151009.811000", "151009.814000", "151009.816000", "151009.819000", "151049.768000", "151049.770000", "151049.773000", "151049.776000", "151049.778000", "151049.781000", "151049.784000", "151049.786000", "151049.789000", "151049.792000", "151049.794000", "151049.797000", "151049.800000", "151049.802000", "151049.805000", "151049.808000", "151049.810000", "151049.813000", "151049.816000", "151049.818000", "151129.768000", "151129.770000", "151129.773000", "151129.776000", "151129.778000", "151129.781000", "151129.784000", "151129.786000", "151129.789000", "151129.792000", "151129.794000", "151129.797000", "151129.800000", "151129.802000", "151129.805000", "151129.808000", "151129.810000", "151129.813000", "151129.815000", "151129.818000", "151209.769000", "151209.771000", "151209.774000", "151209.777000", "151209.780000", "151209.782000", "151209.785000", "151209.787000", "151209.790000", "151209.793000", "151209.796000", "151209.798000", "151209.801000", "151209.804000", "151209.806000", "151209.809000", "151209.812000", "151209.814000", "151209.817000", "151209.820000", "151220.400000", "151220.403000", "151220.406000", "151220.409000", "151220.412000", "151220.416000"],
      "DataSetTrailingPadding": [
        "\u0000\u0000\u0000\u0000\u0000\u0000\u0000\u0000\u0000\u0000\u0000\u0000\u0000\u0000\u0000\u0000\u0000\u0000\u0000\u0000\u0000\u0000\u0000\u0000\u0000\u0000\u0000\u0000\u0000\u0000\u0000\u0000\u0000\u0000\u0000\u0000\u0000\u0000\u0000\u0000\u0000\u0000\u0000\u0000\u0000\u0000\u0000\u0000\u0000\u0000\u0000\u0000\u0000\u0000\u0000\u0000\u0000\u0000\u0000\u0000\u0000\u0000\u0000\u0000\u0000\u0000\u0000\u0000\u0000\u0000\u0000\u0000\u0000\u0000\u0000\u0000\u0000\u0000\u0000\u0000\u0000\u0000\u0000\u0000\u0000\u0000\u0000\u0000\u0000\u0000\u0000\u0000\u0000\u0000\u0000\u0000\u0000\u0000\u0000\u0000\u0000\u0000\u0000\u0000\u0000\u0000\u0000\u0000\u0000\u0000\u0000\u0000\u0000\u0000\u0000\u0000\u0000\u0000\u0000\u0000\u0000\u0000\u0000\u0000\u0000\u0000\u0000\u0000\u0000\u0000",
        "\u0000\u0000\u0000\u0000\u0000\u0000\u0000\u0000\u0000\u0000\u0000\u0000\u0000\u0000\u0000\u0000\u0000\u0000\u0000\u0000\u0000\u0000\u0000\u0000\u0000\u0000\u0000\u0000\u0000\u0000\u0000\u0000\u0000\u0000\u0000\u0000\u0000\u0000\u0000\u0000\u0000\u0000\u0000\u0000\u0000\u0000\u0000\u0000\u0000\u0000\u0000\u0000\u0000\u0000\u0000\u0000\u0000\u0000\u0000\u0000\u0000\u0000\u0000\u0000\u0000\u0000\u0000\u0000\u0000\u0000\u0000\u0000\u0000\u0000\u0000\u0000\u0000\u0000\u0000\u0000\u0000\u0000\u0000\u0000\u0000\u0000\u0000\u0000\u0000\u0000\u0000\u0000\u0000\u0000\u0000\u0000\u0000\u0000\u0000\u0000\u0000\u0000\u0000\u0000\u0000\u0000\u0000\u0000\u0000\u0000\u0000\u0000\u0000\u0000\u0000\u0000\u0000\u0000\u0000\u0000\u0000\u0000\u0000\u0000\u0000\u0000\u0000\u0000\u0000\u0000\u0000\u0000",
        "\u0000\u0000\u0000\u0000\u0000\u0000\u0000\u0000\u0000\u0000\u0000\u0000\u0000\u0000\u0000\u0000\u0000\u0000\u0000\u0000\u0000\u0000\u0000\u0000\u0000\u0000\u0000\u0000\u0000\u0000\u0000\u0000\u0000\u0000\u0000\u0000\u0000\u0000\u0000\u0000\u0000\u0000\u0000\u0000\u0000\u0000\u0000\u0000\u0000\u0000\u0000\u0000\u0000\u0000\u0000\u0000\u0000\u0000\u0000\u0000\u0000\u0000\u0000\u0000\u0000\u0000\u0000\u0000\u0000\u0000\u0000\u0000\u0000\u0000\u0000\u0000\u0000\u0000\u0000\u0000\u0000\u0000\u0000\u0000\u0000\u0000\u0000\u0000\u0000\u0000\u0000\u0000\u0000\u0000\u0000\u0000\u0000\u0000\u0000\u0000\u0000\u0000\u0000\u0000\u0000\u0000\u0000\u0000\u0000\u0000\u0000\u0000\u0000\u0000\u0000\u0000\u0000\u0000\u0000\u0000\u0000\u0000\u0000\u0000\u0000\u0000\u0000\u0000\u0000\u0000\u0000\u0000",
        "\u0000\u0000\u0000\u0000\u0000\u0000\u0000\u0000\u0000\u0000\u0000\u0000\u0000\u0000\u0000\u0000\u0000\u0000\u0000\u0000\u0000\u0000\u0000\u0000\u0000\u0000\u0000\u0000\u0000\u0000\u0000\u0000\u0000\u0000\u0000\u0000\u0000\u0000\u0000\u0000\u0000\u0000\u0000\u0000\u0000\u0000\u0000\u0000\u0000\u0000\u0000\u0000\u0000\u0000\u0000\u0000\u0000\u0000\u0000\u0000\u0000\u0000\u0000\u0000\u0000\u0000\u0000\u0000\u0000\u0000\u0000\u0000\u0000\u0000\u0000\u0000\u0000\u0000\u0000\u0000\u0000\u0000\u0000\u0000\u0000\u0000\u0000\u0000\u0000\u0000\u0000\u0000\u0000\u0000\u0000\u0000\u0000\u0000\u0000\u0000\u0000\u0000\u0000\u0000\u0000\u0000\u0000\u0000\u0000\u0000\u0000\u0000\u0000\u0000\u0000\u0000\u0000\u0000\u0000\u0000\u0000\u0000\u0000\u0000\u0000\u0000\u0000\u0000\u0000\u0000\u0000\u0000",
        "\u0000\u0000\u0000\u0000\u0000\u0000\u0000\u0000\u0000\u0000\u0000\u0000\u0000\u0000\u0000\u0000\u0000\u0000\u0000\u0000\u0000\u0000\u0000\u0000\u0000\u0000\u0000\u0000\u0000\u0000\u0000\u0000\u0000\u0000\u0000\u0000\u0000\u0000\u0000\u0000\u0000\u0000\u0000\u0000\u0000\u0000\u0000\u0000\u0000\u0000\u0000\u0000\u0000\u0000\u0000\u0000\u0000\u0000\u0000\u0000\u0000\u0000\u0000\u0000\u0000\u0000\u0000\u0000\u0000\u0000\u0000\u0000\u0000\u0000\u0000\u0000\u0000\u0000\u0000\u0000\u0000\u0000\u0000\u0000\u0000\u0000\u0000\u0000\u0000\u0000\u0000\u0000\u0000\u0000\u0000\u0000\u0000\u0000\u0000\u0000\u0000\u0000\u0000\u0000\u0000\u0000\u0000\u0000\u0000\u0000\u0000\u0000\u0000\u0000\u0000\u0000\u0000\u0000\u0000\u0000\u0000\u0000\u0000\u0000\u0000\u0000\u0000\u0000\u0000\u0000",
        "\u0000\u0000\u0000\u0000\u0000\u0000\u0000\u0000\u0000\u0000\u0000\u0000\u0000\u0000\u0000\u0000\u0000\u0000\u0000\u0000\u0000\u0000\u0000\u0000\u0000\u0000\u0000\u0000\u0000\u0000\u0000\u0000\u0000\u0000\u0000\u0000\u0000\u0000\u0000\u0000\u0000\u0000\u0000\u0000\u0000\u0000\u0000\u0000\u0000\u0000\u0000\u0000\u0000\u0000\u0000\u0000\u0000\u0000\u0000\u0000\u0000\u0000\u0000\u0000\u0000\u0000\u0000\u0000\u0000\u0000\u0000\u0000\u0000\u0000\u0000\u0000\u0000\u0000\u0000\u0000\u0000\u0000\u0000\u0000\u0000\u0000\u0000\u0000\u0000\u0000\u0000\u0000\u0000\u0000\u0000\u0000\u0000\u0000\u0000\u0000\u0000\u0000\u0000\u0000\u0000\u0000\u0000\u0000\u0000\u0000\u0000\u0000\u0000\u0000\u0000\u0000\u0000\u0000\u0000\u0000\u0000\u0000\u0000\u0000\u0000\u0000\u0000\u0000\u0000\u0000",
        "\u0000\u0000\u0000\u0000\u0000\u0000\u0000\u0000\u0000\u0000\u0000\u0000\u0000\u0000\u0000\u0000\u0000\u0000\u0000\u0000\u0000\u0000\u0000\u0000\u0000\u0000\u0000\u0000\u0000\u0000\u0000\u0000\u0000\u0000\u0000\u0000\u0000\u0000\u0000\u0000\u0000\u0000\u0000\u0000\u0000\u0000\u0000\u0000\u0000\u0000\u0000\u0000\u0000\u0000\u0000\u0000\u0000\u0000\u0000\u0000\u0000\u0000\u0000\u0000\u0000\u0000\u0000\u0000\u0000\u0000\u0000\u0000\u0000\u0000\u0000\u0000\u0000\u0000\u0000\u0000\u0000\u0000\u0000\u0000\u0000\u0000\u0000\u0000\u0000\u0000\u0000\u0000\u0000\u0000\u0000\u0000\u0000\u0000\u0000\u0000\u0000\u0000\u0000\u0000\u0000\u0000\u0000\u0000\u0000\u0000\u0000\u0000\u0000\u0000\u0000\u0000\u0000\u0000\u0000\u0000\u0000\u0000\u0000\u0000\u0000\u0000\u0000\u0000\u0000\u0000",
        "\u0000\u0000\u0000\u0000\u0000\u0000\u0000\u0000\u0000\u0000\u0000\u0000\u0000\u0000\u0000\u0000\u0000\u0000\u0000\u0000\u0000\u0000\u0000\u0000\u0000\u0000\u0000\u0000\u0000\u0000\u0000\u0000\u0000\u0000\u0000\u0000\u0000\u0000\u0000\u0000\u0000\u0000\u0000\u0000\u0000\u0000\u0000\u0000\u0000\u0000\u0000\u0000\u0000\u0000\u0000\u0000\u0000\u0000\u0000\u0000\u0000\u0000\u0000\u0000\u0000\u0000\u0000\u0000\u0000\u0000\u0000\u0000\u0000\u0000\u0000\u0000\u0000\u0000\u0000\u0000\u0000\u0000\u0000\u0000\u0000\u0000\u0000\u0000\u0000\u0000\u0000\u0000\u0000\u0000\u0000\u0000\u0000\u0000\u0000\u0000\u0000\u0000\u0000\u0000\u0000\u0000\u0000\u0000\u0000\u0000\u0000\u0000\u0000\u0000\u0000\u0000\u0000\u0000\u0000\u0000\u0000\u0000\u0000\u0000\u0000\u0000\u0000\u0000\u0000\u0000",
        "\u0000\u0000\u0000\u0000\u0000\u0000\u0000\u0000\u0000\u0000\u0000\u0000\u0000\u0000\u0000\u0000\u0000\u0000\u0000\u0000\u0000\u0000\u0000\u0000\u0000\u0000\u0000\u0000\u0000\u0000\u0000\u0000\u0000\u0000\u0000\u0000\u0000\u0000\u0000\u0000\u0000\u0000\u0000\u0000\u0000\u0000\u0000\u0000\u0000\u0000\u0000\u0000\u0000\u0000\u0000\u0000\u0000\u0000\u0000\u0000\u0000\u0000\u0000\u0000\u0000\u0000\u0000\u0000\u0000\u0000\u0000\u0000\u0000\u0000\u0000\u0000\u0000\u0000\u0000\u0000\u0000\u0000\u0000\u0000\u0000\u0000\u0000\u0000\u0000\u0000\u0000\u0000\u0000\u0000\u0000\u0000\u0000\u0000\u0000\u0000\u0000\u0000\u0000\u0000\u0000\u0000\u0000\u0000\u0000\u0000\u0000\u0000\u0000\u0000\u0000\u0000\u0000\u0000\u0000\u0000\u0000\u0000\u0000\u0000\u0000\u0000\u0000\u0000\u0000\u0000",
        "\u0000\u0000\u0000\u0000\u0000\u0000\u0000\u0000\u0000\u0000\u0000\u0000\u0000\u0000\u0000\u0000\u0000\u0000\u0000\u0000\u0000\u0000\u0000\u0000\u0000\u0000\u0000\u0000\u0000\u0000\u0000\u0000\u0000\u0000\u0000\u0000\u0000\u0000\u0000\u0000\u0000\u0000\u0000\u0000\u0000\u0000\u0000\u0000\u0000\u0000\u0000\u0000\u0000\u0000\u0000\u0000\u0000\u0000\u0000\u0000\u0000\u0000\u0000\u0000\u0000\u0000\u0000\u0000\u0000\u0000\u0000\u0000\u0000\u0000\u0000\u0000\u0000\u0000\u0000\u0000\u0000\u0000\u0000\u0000\u0000\u0000\u0000\u0000\u0000\u0000\u0000\u0000\u0000\u0000\u0000\u0000\u0000\u0000\u0000\u0000\u0000\u0000\u0000\u0000\u0000\u0000\u0000\u0000\u0000\u0000\u0000\u0000\u0000\u0000\u0000\u0000\u0000\u0000\u0000\u0000\u0000\u0000\u0000\u0000\u0000\u0000\u0000\u0000\u0000\u0000",
        "\u0000\u0000\u0000\u0000\u0000\u0000\u0000\u0000\u0000\u0000\u0000\u0000\u0000\u0000\u0000\u0000\u0000\u0000\u0000\u0000\u0000\u0000\u0000\u0000\u0000\u0000\u0000\u0000\u0000\u0000\u0000\u0000\u0000\u0000\u0000\u0000\u0000\u0000\u0000\u0000\u0000\u0000\u0000\u0000\u0000\u0000\u0000\u0000\u0000\u0000\u0000\u0000\u0000\u0000\u0000\u0000\u0000\u0000\u0000\u0000\u0000\u0000\u0000\u0000\u0000\u0000\u0000\u0000\u0000\u0000\u0000\u0000\u0000\u0000\u0000\u0000\u0000\u0000\u0000\u0000\u0000\u0000\u0000\u0000\u0000\u0000\u0000\u0000\u0000\u0000\u0000\u0000\u0000\u0000\u0000\u0000\u0000\u0000\u0000\u0000\u0000\u0000\u0000\u0000\u0000\u0000\u0000\u0000\u0000\u0000\u0000\u0000\u0000\u0000\u0000\u0000\u0000\u0000\u0000\u0000\u0000\u0000\u0000\u0000\u0000\u0000\u0000\u0000\u0000\u0000",
        "\u0000\u0000\u0000\u0000\u0000\u0000\u0000\u0000\u0000\u0000\u0000\u0000\u0000\u0000\u0000\u0000\u0000\u0000\u0000\u0000\u0000\u0000\u0000\u0000\u0000\u0000\u0000\u0000\u0000\u0000\u0000\u0000\u0000\u0000\u0000\u0000\u0000\u0000\u0000\u0000\u0000\u0000\u0000\u0000\u0000\u0000\u0000\u0000\u0000\u0000\u0000\u0000\u0000\u0000\u0000\u0000\u0000\u0000\u0000\u0000\u0000\u0000\u0000\u0000\u0000\u0000\u0000\u0000\u0000\u0000\u0000\u0000\u0000\u0000\u0000\u0000\u0000\u0000\u0000\u0000\u0000\u0000\u0000\u0000\u0000\u0000\u0000\u0000\u0000\u0000\u0000\u0000\u0000\u0000\u0000\u0000\u0000\u0000\u0000\u0000\u0000\u0000\u0000\u0000\u0000\u0000\u0000\u0000\u0000\u0000\u0000\u0000\u0000\u0000\u0000\u0000\u0000\u0000\u0000\u0000\u0000\u0000\u0000\u0000\u0000\u0000\u0000\u0000\u0000\u0000",
        "\u0000\u0000\u0000\u0000\u0000\u0000\u0000\u0000\u0000\u0000\u0000\u0000\u0000\u0000\u0000\u0000\u0000\u0000\u0000\u0000\u0000\u0000\u0000\u0000\u0000\u0000\u0000\u0000\u0000\u0000\u0000\u0000\u0000\u0000\u0000\u0000\u0000\u0000\u0000\u0000\u0000\u0000\u0000\u0000\u0000\u0000\u0000\u0000\u0000\u0000\u0000\u0000\u0000\u0000\u0000\u0000\u0000\u0000\u0000\u0000\u0000\u0000\u0000\u0000\u0000\u0000\u0000\u0000\u0000\u0000\u0000\u0000\u0000\u0000\u0000\u0000\u0000\u0000\u0000\u0000\u0000\u0000\u0000\u0000\u0000\u0000\u0000\u0000\u0000\u0000\u0000\u0000\u0000\u0000\u0000\u0000\u0000\u0000\u0000\u0000\u0000\u0000\u0000\u0000\u0000\u0000\u0000\u0000\u0000\u0000\u0000\u0000\u0000\u0000\u0000\u0000\u0000\u0000\u0000\u0000\u0000\u0000\u0000\u0000\u0000\u0000\u0000\u0000\u0000\u0000",
        "\u0000\u0000\u0000\u0000\u0000\u0000\u0000\u0000\u0000\u0000\u0000\u0000\u0000\u0000\u0000\u0000\u0000\u0000\u0000\u0000\u0000\u0000\u0000\u0000\u0000\u0000\u0000\u0000\u0000\u0000\u0000\u0000\u0000\u0000\u0000\u0000\u0000\u0000\u0000\u0000\u0000\u0000\u0000\u0000\u0000\u0000\u0000\u0000\u0000\u0000\u0000\u0000\u0000\u0000\u0000\u0000\u0000\u0000\u0000\u0000\u0000\u0000\u0000\u0000\u0000\u0000\u0000\u0000\u0000\u0000\u0000\u0000\u0000\u0000\u0000\u0000\u0000\u0000\u0000\u0000\u0000\u0000\u0000\u0000\u0000\u0000\u0000\u0000\u0000\u0000\u0000\u0000\u0000\u0000\u0000\u0000\u0000\u0000\u0000\u0000\u0000\u0000\u0000\u0000\u0000\u0000\u0000\u0000\u0000\u0000\u0000\u0000\u0000\u0000\u0000\u0000\u0000\u0000\u0000\u0000\u0000\u0000\u0000\u0000\u0000\u0000\u0000\u0000\u0000\u0000",
