{
  "AcquisitionMatrixPE": 70,
  "AcquisitionNumber": 1,
  "AcquisitionTime": "15:53:23.975000",
  "BandwidthPerPixelPhaseEncode": 51.948,
  "BaseResolution": 70,
  "BodyPartExamined": "HEAD",
  "CoilCombinationMethod": "Sum of Squares",
  "ConsistencyInfo": "N4_VE11C_LATEST_20160120",
  "ConversionSoftware": "dcm2niix",
  "ConversionSoftwareVersion": "v1.0.20220720",
  "DerivedVendorReportedEchoSpacing": 0.000550001,
  "DeviceSerialNumber": "66061",
  "DwellTime": 3.3e-06,
  "EchoTime": 0.022,
  "EchoTrainLength": 35,
  "EffectiveEchoSpacing": 0.000275,
  "FlipAngle": 90,
  "HeudiconvVersion": "1.1.1",
  "ImageOrientationPatientDICOM": [0.997646, 0.0138433, 0.0671652, -0.00121885, 0.982838, -0.184467],
  "ImageOrientationText": "Tra>Cor(-10.6)>Sag(3.9)",
  "ImageType": [
    "ORIGINAL",
    "PRIMARY",
    "M",
    "ND",
    "NORM",
    "MOSAIC"
],
  "ImagingFrequency": 123.254,
  "InPlanePhaseEncodingDirectionDICOM": "COL",
  "InstitutionAddress": "Street StreetNo,City/1c4204/,District,KR,ZIP",
  "InstitutionName": "SKKU",
  "InstitutionalDepartmentName": "Department",
  "MRAcquisitionType": "2D",
  "MagneticFieldStrength": 3,
  "Manufacturer": "Siemens",
  "ManufacturersModelName": "Prisma",
  "MatrixCoilMode": "GRAPPA",
  "Modality": "MR",
  "NonlinearGradientCorrection": false,
  "ParallelReductionFactorInPlane": 2,
  "PartialFourier": 1,
  "PatientPosition": "HFS",
  "PercentPhaseFOV": 100,
  "PercentSampling": 100,
  "PhaseEncodingDirection": "j-",
  "PhaseEncodingSteps": 70,
  "PhaseResolution": 1,
  "PixelBandwidth": 2165,
  "ProcedureStepDescription": "Head^PI:Others",
  "ProtocolName": "BOLD_ep2d_3x3x3_feature3",
  "PulseSequenceDetails": "%SiemensSeq%\\ep2d_pace",
  "ReceiveCoilActiveElements": "HC1-7",
  "ReceiveCoilName": "HeadNeck_64",
  "ReconMatrixPE": 70,
  "RefLinesPE": 24,
  "RepetitionTime": 2,
  "SAR": 0.133443,
  "ScanOptions": "FS",
  "ScanningSequence": "EP",
  "SequenceName": "*epfid2d1_70",
  "SequenceVariant": "SK",
  "SeriesDescription": "BOLD_ep2d_3x3x3_feature3",
  "SeriesNumber": 10,
  "ShimSetting": [5068, 3707, 4392, 266, -26, -96, -9, -13],
  "SliceThickness": 3,
  "SliceTiming": [0.99, 0, 1.0375, 0.0475, 1.0825, 0.0925, 1.13, 0.14, 1.1775, 0.1875, 1.225, 0.235, 1.2725, 0.2825, 1.32, 0.33, 1.3675, 0.3775, 1.4125, 0.4225, 1.46, 0.47, 1.5075, 0.5175, 1.555, 0.565, 1.6025, 0.6125, 1.65, 0.66, 1.6975, 0.7075, 1.7425, 0.7525, 1.79, 0.8, 1.8375, 0.8475, 1.885, 0.895, 1.9325, 0.9425],
  "SoftwareVersions": "syngo MR E11",
  "SpacingBetweenSlices": 3,
  "StationName": "AWP66061",
  "TaskName": "feature",
  "TotalReadoutTime": 0.018975,
  "TxRefAmp": 250.144,
  "dcmmeta_affine": [
    [-2.9929375648498535, -0.0036565365735441446, 0.20569832623004913, 110.07461547851562],
    [-0.04153003543615341, 2.9485135078430176, -0.5518540740013123, -83.86263275146484],
    [0.2014954686164856, 0.5534024238586426, 2.9416229724884033, -69.23625946044922],
    [0.0, 0.0, 0.0, 1.0]
],
  "dcmmeta_reorient_transform": [
    [0.0, -1.0, 0.0, 69.0],
    [1.0, 0.0, 0.0, 0.0],
    [0.0, 0.0, -1.0, 41.0],
    [0.0, 0.0, 0.0, 1.0]
],
  "dcmmeta_shape": [70, 70, 42, 221],
  "dcmmeta_slice_dim": 2,
  "dcmmeta_version": 0.6,
  "global": {
    "const": {
      "AcquisitionMatrix": [70, 0, 0, 70],
      "AngioFlag": "N",
      "BitsAllocated": 16,
      "BitsStored": 12,
      "BodyPartExamined": "HEAD",
      "Columns": 490,
      "EchoNumbers": 1,
      "EchoTime": 22.0,
      "EchoTrainLength": 35,
      "FlipAngle": 90.0,
      "HighBit": 11,
      "ImageOrientationPatient": [0.99764583059928, 0.0138433451713, 0.06716515824695, -0.0012188455593, 0.98283786187022, -0.1844674813887],
      "ImagePositionPatient": [-746.00494801041, -724.86794721199, 163.45551164735],
      "ImageType": [
        "ORIGINAL",
        "PRIMARY",
        "M",
        "ND",
        "NORM",
        "MOSAIC"
],
      "ImagedNucleus": "1H",
      "ImagingFrequency": 123.25398,
      "InPlanePhaseEncodingDirection": "COL",
      "MRAcquisitionType": "2D",
      "MagneticFieldStrength": 3.0,
      "Manufacturer": "SIEMENS",
      "ManufacturerModelName": "Prisma",
      "Modality": "MR",
      "NumberOfAverages": 1.0,
      "NumberOfPhaseEncodingSteps": 70,
      "PercentPhaseFieldOfView": 100.0,
      "PercentSampling": 100.0,
      "PerformedProcedureStepStartTime": "140643.568000",
      "PhotometricInterpretation": "MONOCHROME2",
      "PixelBandwidth": 2165.0,
      "PixelRepresentation": 0,
      "PixelSpacing": [3.0, 3.0],
      "ProtocolName": "BOLD_ep2d_3x3x3_feature3",
      "RepetitionTime": 2000.0,
      "Rows": 490,
      "SAR": 0.13344332571556,
      "SamplesPerPixel": 1,
      "ScanOptions": "FS",
      "ScanningSequence": "EP",
      "SequenceName": "*epfid2d1_70",
      "SequenceVariant": "SK",
      "SeriesDescription": "BOLD_ep2d_3x3x3_feature3",
      "SeriesNumber": 10,
      "SeriesTime": "155419.790000",
      "SliceLocation": 78.085043830738,
      "SliceThickness": 3.0,
      "SmallestImagePixelValue": 0,
      "SoftwareVersions": "syngo MR E11",
      "SpacingBetweenSlices": 3.0000000396666,
      "SpecificCharacterSet": "ISO_IR 100",
      "StudyID": "1",
      "StudyTime": "140643.498000",
      "TransmitCoilName": "Body",
      "VariableFlipAngleFlag": "N",
      "WindowCenterWidthExplanation": "Algo1",
      "dBdt": 0.0},
    "slices": {}
  },
  "time": {
    "samples": {
      "AcquisitionNumber": [1, 2, 3, 4, 5, 6, 7, 8, 9, 10, 11, 12, 13, 14, 15, 16, 17, 18, 19, 20, 21, 22, 23, 24, 25, 26, 27, 28, 29, 30, 31, 32, 33, 34, 35, 36, 37, 38, 39, 40, 41, 42, 43, 44, 45, 46, 47, 48, 49, 50, 51, 52, 53, 54, 55, 56, 57, 58, 59, 60, 61, 62, 63, 64, 65, 66, 67, 68, 69, 70, 71, 72, 73, 74, 75, 76, 77, 78, 79, 80, 81, 82, 83, 84, 85, 86, 87, 88, 89, 90, 91, 92, 93, 94, 95, 96, 97, 98, 99, 100, 101, 102, 103, 104, 105, 106, 107, 108, 109, 110, 111, 112, 113, 114, 115, 116, 117, 118, 119, 120, 121, 122, 123, 124, 125, 126, 127, 128, 129, 130, 131, 132, 133, 134, 135, 136, 137, 138, 139, 140, 141, 142, 143, 144, 145, 146, 147, 148, 149, 150, 151, 152, 153, 154, 155, 156, 157, 158, 159, 160, 161, 162, 163, 164, 165, 166, 167, 168, 169, 170, 171, 172, 173, 174, 175, 176, 177, 178, 179, 180, 181, 182, 183, 184, 185, 186, 187, 188, 189, 190, 191, 192, 193, 194, 195, 196, 197, 198, 199, 200, 201, 202, 203, 204, 205, 206, 207, 208, 209, 210, 211, 212, 213, 214, 215, 216, 217, 218, 219, 220, 221],
      "AcquisitionTime": ["155323.975000", "155325.975000", "155327.975000", "155329.975000", "155331.975000", "155333.975000", "155335.975000", "155337.975000", "155339.975000", "155341.975000", "155343.975000", "155345.975000", "155347.975000", "155349.975000", "155351.975000", "155353.975000", "155355.975000", "155357.975000", "155359.975000", "155401.975000", "155403.975000", "155405.975000", "155407.975000", "155409.975000", "155411.975000", "155413.975000", "155415.975000", "155417.975000", "155419.975000", "155421.975000", "155423.975000", "155425.975000", "155427.975000", "155429.975000", "155431.975000", "155433.975000", "155435.975000", "155437.975000", "155439.975000", "155441.975000", "155443.975000", "155445.975000", "155447.975000", "155449.975000", "155451.975000", "155453.975000", "155455.975000", "155457.975000", "155459.975000", "155501.975000", "155503.975000", "155505.975000", "155507.975000", "155509.975000", "155511.975000", "155513.975000", "155515.975000", "155517.975000", "155519.975000", "155521.975000", "155523.975000", "155525.975000", "155527.975000", "155529.975000", "155531.975000", "155533.975000", "155535.975000", "155537.975000", "155539.975000", "155541.975000", "155543.975000", "155545.975000", "155547.975000", "155549.975000", "155551.975000", "155553.975000", "155555.975000", "155557.975000", "155559.975000", "155601.975000", "155603.975000", "155605.975000", "155607.975000", "155609.975000", "155611.975000", "155613.975000", "155615.975000", "155617.975000", "155619.975000", "155621.975000", "155623.975000", "155625.975000", "155627.975000", "155629.975000", "155631.975000", "155633.975000", "155635.975000", "155637.975000", "155639.975000", "155641.975000", "155643.975000", "155645.975000", "155647.975000", "155649.975000", "155651.975000", "155653.975000", "155655.975000", "155657.975000", "155659.975000", "155701.975000", "155703.975000", "155705.975000", "155707.975000", "155709.975000", "155711.975000", "155713.975000", "155715.975000", "155717.975000", "155719.975000", "155721.975000", "155723.975000", "155725.975000", "155727.975000", "155729.975000", "155731.975000", "155733.975000", "155735.975000", "155737.975000", "155739.975000", "155741.975000", "155743.975000", "155745.975000", "155747.975000", "155749.975000", "155751.975000", "155753.975000", "155755.975000", "155757.975000", "155759.975000", "155801.975000", "155803.975000", "155805.975000", "155807.975000", "155809.975000", "155811.975000", "155813.975000", "155815.975000", "155817.975000", "155819.975000", "155821.975000", "155823.975000", "155825.975000", "155827.975000", "155829.975000", "155831.975000", "155833.975000", "155835.975000", "155837.975000", "155839.975000", "155841.975000", "155843.975000", "155845.975000", "155847.975000", "155849.975000", "155851.975000", "155853.975000", "155855.975000", "155857.975000", "155859.975000", "155901.975000", "155903.975000", "155905.975000", "155907.975000", "155909.975000", "155911.975000", "155913.975000", "155915.975000", "155917.975000", "155919.975000", "155921.975000", "155923.975000", "155925.975000", "155927.975000", "155929.975000", "155931.975000", "155933.975000", "155935.975000", "155937.975000", "155939.975000", "155941.975000", "155943.975000", "155945.975000", "155947.975000", "155949.975000", "155951.975000", "155953.975000", "155955.975000", "155957.975000", "155959.975000", "160001.975000", "160003.975000", "160005.975000", "160007.975000", "160009.975000", "160011.975000", "160013.975000", "160015.975000", "160017.975000", "160019.975000", "160021.975000", "160023.975000", "160025.975000", "160027.975000", "160029.975000", "160031.975000", "160033.975000", "160035.975000", "160037.975000", "160039.975000", "160041.975000", "160043.975000"],
      "ContentTime": ["155419.793000", "155419.797000", "155419.800000", "155419.803000", "155419.805000", "155419.808000", "155419.811000", "155419.826000", "155419.828000", "155419.831000", "155419.834000", "155419.842000", "155419.845000", "155419.848000", "155419.850000", "155419.853000", "155419.856000", "155419.858000", "155419.861000", "155419.864000", "155419.866000", "155419.869000", "155419.871000", "155419.874000", "155419.877000", "155419.879000", "155419.882000", "155419.885000", "155459.789000", "155459.791000", "155459.794000", "155459.797000", "155459.800000", "155459.802000", "155459.805000", "155459.811000", "155459.813000", "155459.816000", "155459.818000", "155459.821000", "155459.824000", "155459.826000", "155459.829000", "155459.832000", "155459.834000", "155459.837000", "155459.839000", "155459.842000", "155539.790000", "155539.793000", "155539.795000", "155539.798000", "155539.801000", "155539.803000", "155539.806000", "155539.809000", "155539.811000", "155539.814000", "155539.817000", "155539.819000", "155539.822000", "155539.824000", "155539.827000", "155539.830000", "155539.832000", "155539.835000", "155539.841000", "155539.843000", "155619.789000", "155619.792000", "155619.794000", "155619.797000", "155619.799000", "155619.802000", "155619.805000", "155619.807000", "155619.810000", "155619.813000", "155619.815000", "155619.818000", "155619.821000", "155619.823000", "155619.826000", "155619.829000", "155619.831000", "155619.834000", "155619.837000", "155619.839000", "155659.789000", "155659.791000", "155659.794000", "155659.797000", "155659.799000", "155659.802000", "155659.805000", "155659.807000", "155659.810000", "155659.813000", "155659.815000", "155659.818000", "155659.821000", "155659.823000", "155659.826000", "155659.829000", "155659.831000", "155659.834000", "155659.837000", "155659.839000", "155739.790000", "155739.793000", "155739.795000", "155739.798000", "155739.803000", "155739.806000", "155739.809000", "155739.811000", "155739.814000", "155739.817000", "155739.819000", "155739.822000", "155739.825000", "155739.828000", "155739.830000", "155739.833000", "155739.836000", "155739.838000", "155739.841000", "155739.844000", "155819.789000", "155819.792000", "155819.794000", "155819.797000", "155819.800000", "155819.802000", "155819.805000", "155819.807000", "155819.810000", "155819.813000", "155819.816000", "155819.818000", "155819.821000", "155819.824000", "155819.826000", "155819.829000", "155819.832000", "155819.834000", "155819.837000", "155819.840000", "155859.789000", "155859.792000", "155859.794000", "155859.797000", "155859.800000", "155859.802000", "155859.805000", "155859.808000", "155859.810000", "155859.813000", "155859.816000", "155859.818000", "155859.821000", "155859.824000", "155859.827000", "155859.829000", "155859.832000", "155859.835000", "155859.837000", "155859.840000", "155939.789000", "155939.791000", "155939.794000", "155939.797000", "155939.800000", "155939.802000", "155939.805000", "155939.808000", "155939.810000", "155939.813000", "155939.815000", "155939.818000", "155939.821000", "155939.823000", "155939.826000", "155939.829000", "155939.831000", "155939.834000", "155939.836000", "155939.839000", "160019.790000", "160019.792000", "160019.795000", "160019.798000", "160019.800000", "160019.803000", "160019.806000", "160019.808000", "160019.811000", "160019.814000", "160019.816000", "160019.819000", "160019.822000", "160019.824000", "160019.827000", "160019.830000", "160019.832000", "160019.835000", "160019.838000", "160019.840000", "160045.654000", "160045.657000", "160045.660000", "160045.663000", "160045.665000", "160045.668000", "160045.671000", "160045.674000", "160045.677000", "160045.679000", "160045.682000", "160045.685000", "160045.696000"],
      "DataSetTrailingPadding": [
        "\u0000\u0000\u0000\u0000\u0000\u0000\u0000\u0000\u0000\u0000\u0000\u0000\u0000\u0000\u0000\u0000",
        "\u0000\u0000\u0000\u0000\u0000\u0000\u0000\u0000\u0000\u0000\u0000\u0000\u0000\u0000",
        "\u0000\u0000\u0000\u0000\u0000\u0000\u0000\u0000\u0000\u0000\u0000\u0000\u0000\u0000",
        "\u0000\u0000\u0000\u0000\u0000\u0000\u0000\u0000\u0000\u0000\u0000\u0000\u0000\u0000",
        "\u0000\u0000\u0000\u0000\u0000\u0000\u0000\u0000\u0000\u0000\u0000\u0000",
        "\u0000\u0000\u0000\u0000\u0000\u0000\u0000\u0000\u0000\u0000\u0000\u0000",
        "\u0000\u0000\u0000\u0000\u0000\u0000\u0000\u0000\u0000\u0000\u0000\u0000",
        "\u0000\u0000\u0000\u0000\u0000\u0000\u0000\u0000\u0000\u0000\u0000\u0000",
        "\u0000\u0000\u0000\u0000\u0000\u0000\u0000\u0000\u0000\u0000\u0000\u0000",
        "\u0000\u0000\u0000\u0000\u0000\u0000\u0000\u0000\u0000\u0000\u0000\u0000",
        "\u0000\u0000\u0000\u0000\u0000\u0000\u0000\u0000\u0000\u0000\u0000\u0000",
        "\u0000\u0000\u0000\u0000\u0000\u0000\u0000\u0000\u0000\u0000\u0000\u0000",
        "\u0000\u0000\u0000\u0000\u0000\u0000\u0000\u0000\u0000\u0000\u0000\u0000",
        "\u0000\u0000\u0000\u0000\u0000\u0000\u0000\u0000\u0000\u0000\u0000\u0000",
        "\u0000\u0000\u0000\u0000\u0000\u0000\u0000\u0000\u0000\u0000\u0000\u0000",
        "\u0000\u0000\u0000\u0000\u0000\u0000\u0000\u0000\u0000\u0000\u0000\u0000",
        "\u0000\u0000\u0000\u0000\u0000\u0000\u0000\u0000\u0000\u0000\u0000\u0000",
        "\u0000\u0000\u0000\u0000\u0000\u0000\u0000\u0000\u0000\u0000\u0000\u0000",
        "\u0000\u0000\u0000\u0000\u0000\u0000\u0000\u0000\u0000\u0000\u0000\u0000",
        "\u0000\u0000\u0000\u0000\u0000\u0000\u0000\u0000\u0000\u0000\u0000\u0000",
        "\u0000\u0000\u0000\u0000\u0000\u0000\u0000\u0000\u0000\u0000\u0000\u0000",
        "\u0000\u0000\u0000\u0000\u0000\u0000\u0000\u0000\u0000\u0000\u0000\u0000",
        "\u0000\u0000\u0000\u0000\u0000\u0000\u0000\u0000\u0000\u0000\u0000\u0000",
        "\u0000\u0000\u0000\u0000\u0000\u0000\u0000\u0000\u0000\u0000\u0000\u0000",
        "\u0000\u0000\u0000\u0000\u0000\u0000\u0000\u0000\u0000\u0000\u0000\u0000",
        "\u0000\u0000\u0000\u0000\u0000\u0000\u0000\u0000\u0000\u0000\u0000\u0000",
        "\u0000\u0000\u0000\u0000\u0000\u0000\u0000\u0000\u0000\u0000\u0000\u0000",
        "\u0000\u0000\u0000\u0000\u0000\u0000\u0000\u0000\u0000\u0000\u0000\u0000",
        "\u0000\u0000\u0000\u0000\u0000\u0000\u0000\u0000\u0000\u0000\u0000\u0000",
        "\u0000\u0000\u0000\u0000\u0000\u0000\u0000\u0000\u0000\u0000\u0000\u0000",
        "\u0000\u0000\u0000\u0000\u0000\u0000\u0000\u0000\u0000\u0000\u0000\u0000",
        "\u0000\u0000\u0000\u0000\u0000\u0000\u0000\u0000\u0000\u0000\u0000\u0000",
        "\u0000\u0000\u0000\u0000\u0000\u0000\u0000\u0000\u0000\u0000\u0000\u0000",
        "\u0000\u0000\u0000\u0000\u0000\u0000\u0000\u0000\u0000\u0000\u0000\u0000",
        "\u0000\u0000\u0000\u0000\u0000\u0000\u0000\u0000\u0000\u0000\u0000\u0000",
        "\u0000\u0000\u0000\u0000\u0000\u0000\u0000\u0000\u0000\u0000\u0000\u0000",
        "\u0000\u0000\u0000\u0000\u0000\u0000\u0000\u0000\u0000\u0000\u0000\u0000",
        "\u0000\u0000\u0000\u0000\u0000\u0000\u0000\u0000\u0000\u0000\u0000\u0000",
        "\u0000\u0000\u0000\u0000\u0000\u0000\u0000\u0000\u0000\u0000\u0000\u0000",
        "\u0000\u0000\u0000\u0000\u0000\u0000\u0000\u0000\u0000\u0000\u0000\u0000",
        "\u0000\u0000\u0000\u0000\u0000\u0000\u0000\u0000\u0000\u0000\u0000\u0000",
        "\u0000\u0000\u0000\u0000\u0000\u0000\u0000\u0000\u0000\u0000\u0000\u0000",
        "\u0000\u0000\u0000\u0000\u0000\u0000\u0000\u0000\u0000\u0000\u0000\u0000",
        "\u0000\u0000\u0000\u0000\u0000\u0000\u0000\u0000\u0000\u0000\u0000\u0000",
        "\u0000\u0000\u0000\u0000\u0000\u0000\u0000\u0000\u0000\u0000\u0000\u0000",
        "\u0000\u0000\u0000\u0000\u0000\u0000\u0000\u0000\u0000\u0000\u0000\u0000",
        "\u0000\u0000\u0000\u0000\u0000\u0000\u0000\u0000\u0000\u0000\u0000\u0000",
        "\u0000\u0000\u0000\u0000\u0000\u0000\u0000\u0000\u0000\u0000\u0000\u0000",
        "\u0000\u0000\u0000\u0000\u0000\u0000\u0000\u0000\u0000\u0000\u0000\u0000",
        "\u0000\u0000\u0000\u0000\u0000\u0000\u0000\u0000",
        "\u0000\u0000\u0000\u0000\u0000\u0000\u0000\u0000",
        "\u0000\u0000\u0000\u0000\u0000\u0000\u0000\u0000",
        "\u0000\u0000\u0000\u0000\u0000\u0000\u0000\u0000",
        "\u0000\u0000\u0000\u0000\u0000\u0000\u0000\u0000",
        "\u0000\u0000\u0000\u0000\u0000\u0000\u0000\u0000",
        "\u0000\u0000\u0000\u0000\u0000\u0000\u0000\u0000",
        "\u0000\u0000\u0000\u0000\u0000\u0000\u0000\u0000",
        "\u0000\u0000\u0000\u0000\u0000\u0000\u0000\u0000",
        "\u0000\u0000\u0000\u0000\u0000\u0000\u0000\u0000",
        "\u0000\u0000\u0000\u0000\u0000\u0000\u0000\u0000",
        "\u0000\u0000\u0000\u0000\u0000\u0000\u0000\u0000",
        "\u0000\u0000\u0000\u0000\u0000\u0000\u0000\u0000",
        "\u0000\u0000\u0000\u0000\u0000\u0000\u0000\u0000",
        "\u0000\u0000\u0000\u0000\u0000\u0000\u0000\u0000",
        "\u0000\u0000\u0000\u0000\u0000\u0000\u0000\u0000",
        "\u0000\u0000\u0000\u0000\u0000\u0000\u0000\u0000",
        "\u0000\u0000\u0000\u0000\u0000\u0000\u0000\u0000",
        "\u0000\u0000\u0000\u0000\u0000\u0000\u0000\u0000",
        "\u0000\u0000\u0000\u0000\u0000\u0000\u0000\u0000",
        "\u0000\u0000\u0000\u0000\u0000\u0000\u0000\u0000",
        "\u0000\u0000\u0000\u0000\u0000\u0000\u0000\u0000",
        "\u0000\u0000\u0000\u0000\u0000\u0000\u0000\u0000",
        "\u0000\u0000\u0000\u0000\u0000\u0000\u0000\u0000",
        "\u0000\u0000\u0000\u0000\u0000\u0000\u0000\u0000",
        "\u0000\u0000\u0000\u0000\u0000\u0000\u0000\u0000",
        "\u0000\u0000\u0000\u0000\u0000\u0000\u0000\u0000",
        "\u0000\u0000\u0000\u0000\u0000\u0000\u0000\u0000",
        "\u0000\u0000\u0000\u0000\u0000\u0000\u0000\u0000",
        "\u0000\u0000\u0000\u0000\u0000\u0000\u0000\u0000",
        "\u0000\u0000\u0000\u0000\u0000\u0000\u0000\u0000",
        "\u0000\u0000\u0000\u0000\u0000\u0000\u0000\u0000",
        "\u0000\u0000\u0000\u0000\u0000\u0000\u0000\u0000",
        "\u0000\u0000\u0000\u0000\u0000\u0000\u0000\u0000",
        "\u0000\u0000\u0000\u0000\u0000\u0000\u0000\u0000",
        "\u0000\u0000\u0000\u0000\u0000\u0000\u0000\u0000",
        "\u0000\u0000\u0000\u0000\u0000\u0000\u0000\u0000",
        "\u0000\u0000\u0000\u0000\u0000\u0000\u0000\u0000",
        "\u0000\u0000\u0000\u0000\u0000\u0000\u0000\u0000",
        "\u0000\u0000\u0000\u0000\u0000\u0000\u0000\u0000",
        "\u0000\u0000\u0000\u0000\u0000\u0000\u0000\u0000",
        "\u0000\u0000\u0000\u0000\u0000\u0000\u0000\u0000",
        "\u0000\u0000\u0000\u0000\u0000\u0000\u0000\u0000",
        "\u0000\u0000\u0000\u0000\u0000\u0000\u0000\u0000",
        "\u0000\u0000\u0000\u0000\u0000\u0000\u0000\u0000",
        "\u0000\u0000\u0000\u0000\u0000\u0000\u0000\u0000",
        "\u0000\u0000\u0000\u0000\u0000\u0000\u0000\u0000",
        "\u0000\u0000\u0000\u0000\u0000\u0000\u0000\u0000",
        "\u0000\u0000\u0000\u0000\u0000\u0000\u0000\u0000",
        "\u0000\u0000\u0000\u0000\u0000\u0000\u0000\u0000",
        "\u0000\u0000\u0000\u0000",
        "\u0000\u0000\u0000\u0000",
        "\u0000\u0000\u0000\u0000",
        "\u0000\u0000\u0000\u0000",
        "\u0000\u0000\u0000\u0000",
        "\u0000\u0000\u0000\u0000",
        "\u0000\u0000\u0000\u0000",
        "\u0000\u0000\u0000\u0000",
        "\u0000\u0000\u0000\u0000",
        "\u0000\u0000\u0000\u0000",
        "\u0000\u0000\u0000\u0000",
        "\u0000\u0000\u0000\u0000",
        "\u0000\u0000\u0000\u0000",
        "\u0000\u0000\u0000\u0000",
        "\u0000\u0000\u0000\u0000",
        "\u0000\u0000\u0000\u0000",
        "\u0000\u0000\u0000\u0000",
        "\u0000\u0000\u0000\u0000",
        "\u0000\u0000\u0000\u0000",
        "\u0000\u0000\u0000\u0000",
        "\u0000\u0000\u0000\u0000",
        "\u0000\u0000\u0000\u0000",
        "\u0000\u0000\u0000\u0000",
        "\u0000\u0000\u0000\u0000",
        "\u0000\u0000\u0000\u0000",
        "\u0000\u0000\u0000\u0000",
        "\u0000\u0000\u0000\u0000",
        "\u0000\u0000\u0000\u0000",
        "\u0000\u0000\u0000\u0000",
        "\u0000\u0000\u0000\u0000",
        "\u0000\u0000\u0000\u0000",
        "\u0000\u0000\u0000\u0000",
        "\u0000\u0000\u0000\u0000",
        "\u0000\u0000\u0000\u0000",
        "\u0000\u0000\u0000\u0000",
        "\u0000\u0000\u0000\u0000",
        "\u0000\u0000\u0000\u0000",
        "\u0000\u0000\u0000\u0000",
        "\u0000\u0000\u0000\u0000",
        "\u0000\u0000\u0000\u0000",
        "\u0000\u0000\u0000\u0000",
        "\u0000\u0000\u0000\u0000",
        "\u0000\u0000\u0000\u0000",
        "\u0000\u0000\u0000\u0000",
        "\u0000\u0000\u0000\u0000",
        "\u0000\u0000\u0000\u0000",
        "\u0000\u0000\u0000\u0000",
        "\u0000\u0000\u0000\u0000",
        "\u0000\u0000\u0000\u0000",
        "\u0000\u0000\u0000\u0000",
        "\u0000\u0000\u0000\u0000",
        "\u0000\u0000\u0000\u0000",
        "\u0000\u0000\u0000\u0000",
        "\u0000\u0000\u0000\u0000",
        "\u0000\u0000\u0000\u0000",
        "\u0000\u0000\u0000\u0000",
        "\u0000\u0000\u0000\u0000",
        "\u0000\u0000\u0000\u0000",
        "\u0000\u0000\u0000\u0000",
        "\u0000\u0000\u0000\u0000",
        "\u0000\u0000\u0000\u0000",
        "\u0000\u0000\u0000\u0000",
        "\u0000\u0000\u0000\u0000",
        "\u0000\u0000\u0000\u0000",
        "\u0000\u0000\u0000\u0000",
        "\u0000\u0000\u0000\u0000",
        "\u0000\u0000\u0000\u0000",
        "\u0000\u0000\u0000\u0000",
        "\u0000\u0000\u0000\u0000",
        "\u0000\u0000\u0000\u0000",
        "\u0000\u0000\u0000\u0000",
        "\u0000\u0000\u0000\u0000",
        "\u0000\u0000\u0000\u0000",
        "\u0000\u0000\u0000\u0000",
        "\u0000\u0000\u0000\u0000",
        "\u0000\u0000\u0000\u0000",
        "\u0000\u0000\u0000\u0000",
        "\u0000\u0000\u0000\u0000",
        "\u0000\u0000\u0000\u0000",
        "\u0000\u0000\u0000\u0000",
        "\u0000\u0000\u0000\u0000",
        "\u0000\u0000\u0000\u0000",
        "\u0000\u0000\u0000\u0000",
        "\u0000\u0000\u0000\u0000",
        "\u0000\u0000\u0000\u0000",
        "\u0000\u0000\u0000\u0000",
        "\u0000\u0000\u0000\u0000",
        "\u0000\u0000\u0000\u0000",
        "\u0000\u0000\u0000\u0000",
        "\u0000\u0000\u0000\u0000",
        "\u0000\u0000\u0000\u0000",
        "\u0000\u0000\u0000\u0000",
        "\u0000\u0000\u0000\u0000",
        "\u0000\u0000\u0000\u0000",
        "\u0000\u0000\u0000\u0000",
        "\u0000\u0000\u0000\u0000",
        "\u0000\u0000\u0000\u0000",
        "\u0000\u0000\u0000\u0000",
        "\u0000\u0000\u0000\u0000\u0000\u0000",
        "\u0000\u0000\u0000\u0000",
        "\u0000\u0000\u0000\u0000",
        "\u0000\u0000\u0000\u0000\u0000\u0000",
        "\u0000\u0000\u0000\u0000",
        "\u0000\u0000\u0000\u0000\u0000\u0000",
        "\u0000\u0000\u0000\u0000\u0000\u0000",
        "\u0000\u0000\u0000\u0000\u0000\u0000",
        "\u0000\u0000\u0000\u0000\u0000\u0000",
        "\u0000\u0000\u0000\u0000\u0000\u0000",
        "\u0000\u0000\u0000\u0000\u0000\u0000",
        "\u0000\u0000\u0000\u0000\u0000\u0000",
        "\u0000\u0000\u0000\u0000\u0000\u0000",
        "\u0000\u0000\u0000\u0000\u0000\u0000",
        "\u0000\u0000\u0000\u0000\u0000\u0000",
        "\u0000\u0000\u0000\u0000\u0000\u0000",
        "\u0000\u0000\u0000\u0000\u0000\u0000",
        "\u0000\u0000\u0000\u0000\u0000\u0000",
        "\u0000\u0000\u0000\u0000\u0000\u0000",
        "\u0000\u0000\u0000\u0000\u0000\u0000",
        "\u0000\u0000\u0000\u0000\u0000\u0000",
        "\u0000\u0000\u0000\u0000\u0000\u0000",
        "\u0000\u0000\u0000\u0000\u0000\u0000",
        "\u0000\u0000\u0000\u0000\u0000\u0000"
],
      "InstanceCreationTime": ["155419.793000", "155419.797000", "155419.800000", "155419.803000", "155419.805000", "155419.808000", "155419.811000", "155419.826000", "155419.828000", "155419.831000", "155419.834000", "155419.842000", "155419.845000", "155419.848000", "155419.850000", "155419.853000", "155419.856000", "155419.858000", "155419.861000", "155419.864000", "155419.866000", "155419.869000", "155419.871000", "155419.874000", "155419.877000", "155419.879000", "155419.882000", "155419.885000", "155459.789000", "155459.791000", "155459.794000", "155459.797000", "155459.800000", "155459.802000", "155459.805000", "155459.811000", "155459.813000", "155459.816000", "155459.818000", "155459.821000", "155459.824000", "155459.826000", "155459.829000", "155459.832000", "155459.834000", "155459.837000", "155459.839000", "155459.842000", "155539.790000", "155539.793000", "155539.795000", "155539.798000", "155539.801000", "155539.803000", "155539.806000", "155539.809000", "155539.811000", "155539.814000", "155539.817000", "155539.819000", "155539.822000", "155539.824000", "155539.827000", "155539.830000", "155539.832000", "155539.835000", "155539.841000", "155539.843000", "155619.789000", "155619.792000", "155619.794000", "155619.797000", "155619.799000", "155619.802000", "155619.805000", "155619.807000", "155619.810000", "155619.813000", "155619.815000", "155619.818000", "155619.821000", "155619.823000", "155619.826000", "155619.829000", "155619.831000", "155619.834000", "155619.837000", "155619.839000", "155659.789000", "155659.791000", "155659.794000", "155659.797000", "155659.799000", "155659.802000", "155659.805000", "155659.807000", "155659.810000", "155659.813000", "155659.815000", "155659.818000", "155659.821000", "155659.823000", "155659.826000", "155659.829000", "155659.831000", "155659.834000", "155659.837000", "155659.839000", "155739.790000", "155739.793000", "155739.795000", "155739.798000", "155739.803000", "155739.806000", "155739.809000", "155739.811000", "155739.814000", "155739.817000", "155739.819000", "155739.822000", "155739.825000", "155739.828000", "155739.830000", "155739.833000", "155739.836000", "155739.838000", "155739.841000", "155739.844000", "155819.789000", "155819.792000", "155819.794000", "155819.797000", "155819.800000", "155819.802000", "155819.805000", "155819.807000", "155819.810000", "155819.813000", "155819.816000", "155819.818000", "155819.821000", "155819.824000", "155819.826000", "155819.829000", "155819.832000", "155819.834000", "155819.837000", "155819.840000", "155859.789000", "155859.792000", "155859.794000", "155859.797000", "155859.800000", "155859.802000", "155859.805000", "155859.808000", "155859.810000", "155859.813000", "155859.816000", "155859.818000", "155859.821000", "155859.824000", "155859.827000", "155859.829000", "155859.832000", "155859.835000", "155859.837000", "155859.840000", "155939.789000", "155939.791000", "155939.794000", "155939.797000", "155939.800000", "155939.802000", "155939.805000", "155939.808000", "155939.810000", "155939.813000", "155939.815000", "155939.818000", "155939.821000", "155939.823000", "155939.826000", "155939.829000", "155939.831000", "155939.834000", "155939.836000", "155939.839000", "160019.790000", "160019.792000", "160019.795000", "160019.798000", "160019.800000", "160019.803000", "160019.806000", "160019.808000", "160019.811000", "160019.814000", "160019.816000", "160019.819000", "160019.822000", "160019.824000", "160019.827000", "160019.830000", "160019.832000", "160019.835000", "160019.838000", "160019.840000", "160045.654000", "160045.657000", "160045.660000", "160045.663000", "160045.665000", "160045.668000", "160045.671000", "160045.674000", "160045.677000", "160045.679000", "160045.682000", "160045.685000", "160045.696000"],
