{
  "AcquisitionMatrixPE": 70,
  "AcquisitionNumber": 1,
  "AcquisitionTime": "16:12:34.142500",
  "BandwidthPerPixelPhaseEncode": 51.948,
  "BaseResolution": 70,
  "BodyPartExamined": "HEAD",
  "CoilCombinationMethod": "Sum of Squares",
  "ConsistencyInfo": "N4_VE11C_LATEST_20160120",
  "ConversionSoftware": "dcm2niix",
  "ConversionSoftwareVersion": "v1.0.20220720",
  "DerivedVendorReportedEchoSpacing": 0.000550001,
  "DeviceSerialNumber": "66061",
  "DwellTime": 3.3e-06,
  "EchoTime": 0.022,
  "EchoTrainLength": 35,
  "EffectiveEchoSpacing": 0.000275,
  "FlipAngle": 90,
  "HeudiconvVersion": "1.1.1",
  "ImageOrientationPatientDICOM": [0.998585, 0.0099921, 0.0522226, -0.00122003, 0.98623, -0.165373],
  "ImageOrientationText": "Tra>Cor(-9.5)>Sag(3.0)",
  "ImageType": [
    "ORIGINAL",
    "PRIMARY",
    "M",
    "ND",
    "NORM",
    "MOSAIC"
],
  "ImagingFrequency": 123.255,
  "InPlanePhaseEncodingDirectionDICOM": "COL",
  "InstitutionAddress": "Street StreetNo,City/1c4204/,District,KR,ZIP",
  "InstitutionName": "SKKU",
  "InstitutionalDepartmentName": "Department",
  "MRAcquisitionType": "2D",
  "MagneticFieldStrength": 3,
  "Manufacturer": "Siemens",
  "ManufacturersModelName": "Prisma",
  "MatrixCoilMode": "GRAPPA",
  "Modality": "MR",
  "NonlinearGradientCorrection": false,
  "ParallelReductionFactorInPlane": 2,
  "PartialFourier": 1,
  "PatientPosition": "HFS",
  "PercentPhaseFOV": 100,
  "PercentSampling": 100,
  "PhaseEncodingDirection": "j-",
  "PhaseEncodingSteps": 70,
  "PhaseResolution": 1,
  "PixelBandwidth": 2165,
  "ProcedureStepDescription": "Head^PI:Others",
  "ProtocolName": "BOLD_ep2d_3x3x3_dimension1",
  "PulseSequenceDetails": "%SiemensSeq%\\ep2d_pace",
  "ReceiveCoilActiveElements": "HC1-7",
  "ReceiveCoilName": "HeadNeck_64",
  "ReconMatrixPE": 70,
  "RefLinesPE": 24,
  "RepetitionTime": 2,
  "SAR": 0.144156,
  "ScanOptions": "FS",
  "ScanningSequence": "EP",
  "SequenceName": "*epfid2d1_70",
  "SequenceVariant": "SK",
  "SeriesDescription": "BOLD_ep2d_3x3x3_dimension1",
  "SeriesNumber": 9,
  "ShimSetting": [5053, 3763, 4221, 341, -119, 21, -264, 40],
  "SliceThickness": 3,
  "SliceTiming": [0.99, 0, 1.0375, 0.0475, 1.085, 0.095, 1.1325, 0.1425, 1.18, 0.19, 1.2275, 0.2375, 1.275, 0.285, 1.32, 0.33, 1.3675, 0.3775, 1.415, 0.425, 1.4625, 0.4725, 1.51, 0.52, 1.5575, 0.5675, 1.605, 0.615, 1.65, 0.66, 1.6975, 0.7075, 1.745, 0.755, 1.7925, 0.8025, 1.84, 0.85, 1.8875, 0.8975, 1.935, 0.945],
  "SoftwareVersions": "syngo MR E11",
  "SpacingBetweenSlices": 3,
  "StationName": "AWP66061",
  "TaskName": "dimension",
  "TotalReadoutTime": 0.018975,
  "TxRefAmp": 240.934,
  "dcmmeta_affine": [
    [-2.9957563877105713, -0.0036600970197468996, 0.1594679355621338, 104.57872009277344],
    [-0.02997630462050438, 2.958691120147705, -0.4952256679534912, -88.18644714355469],
    [0.15666791796684265, 0.49611857533454895, 2.954542636871338, -68.39350128173828],
    [0.0, 0.0, 0.0, 1.0]
],
  "dcmmeta_reorient_transform": [
    [0.0, -1.0, 0.0, 69.0],
    [1.0, 0.0, 0.0, 0.0],
    [0.0, 0.0, -1.0, 41.0],
    [0.0, 0.0, 0.0, 1.0]
],
  "dcmmeta_shape": [70, 70, 42, 437],
  "dcmmeta_slice_dim": 2,
  "dcmmeta_version": 0.6,
  "global": {
    "const": {
      "AcquisitionMatrix": [70, 0, 0, 70],
      "AngioFlag": "N",
      "BitsAllocated": 16,
      "BitsStored": 12,
      "BodyPartExamined": "HEAD",
      "Columns": 490,
      "EchoNumbers": 1,
      "EchoTime": 22.0,
      "EchoTrainLength": 35,
      "FlipAngle": 90.0,
      "HighBit": 11,
      "ImageOrientationPatient": [0.99858547642119, 0.00999210139356, 0.05222264059205, -0.0012200323692, 0.98623036368126, -0.1653728553123],
      "ImagePositionPatient": [-739.20458495975, -723.27913774552, 158.25956217731],
      "ImageType": [
        "ORIGINAL",
        "PRIMARY",
        "M",
        "ND",
        "NORM",
        "MOSAIC"
],
      "ImagedNucleus": "1H",
      "ImagingFrequency": 123.254727,
      "InPlanePhaseEncodingDirection": "COL",
      "MRAcquisitionType": "2D",
      "MagneticFieldStrength": 3.0,
      "Manufacturer": "SIEMENS",
      "ManufacturerModelName": "Prisma",
      "Modality": "MR",
      "NumberOfAverages": 1.0,
      "NumberOfPhaseEncodingSteps": 70,
      "PercentPhaseFieldOfView": 100.0,
      "PercentSampling": 100.0,
      "PerformedProcedureStepStartTime": "152846.965000",
      "PhotometricInterpretation": "MONOCHROME2",
      "PixelBandwidth": 2165.0,
      "PixelRepresentation": 0,
      "PixelSpacing": [3.0, 3.0],
      "ProtocolName": "BOLD_ep2d_3x3x3_dimension1",
      "RepetitionTime": 2000.0,
      "Rows": 490,
      "SAR": 0.14415556742047,
      "SamplesPerPixel": 1,
      "ScanOptions": "FS",
      "ScanningSequence": "EP",
      "SequenceName": "*epfid2d1_70",
      "SequenceVariant": "SK",
      "SeriesDescription": "BOLD_ep2d_3x3x3_dimension1",
      "SeriesNumber": 9,
      "SeriesTime": "161324.006000",
      "SliceLocation": 75.759215285143,
      "SliceThickness": 3.0,
      "SmallestImagePixelValue": 0,
      "SoftwareVersions": "syngo MR E11",
      "SpacingBetweenSlices": 3.0000000527337,
      "SpecificCharacterSet": "ISO_IR 100",
      "StudyID": "1",
      "StudyTime": "152846.905000",
      "TransmitCoilName": "Body",
      "VariableFlipAngleFlag": "N",
      "WindowCenterWidthExplanation": "Algo1",
      "dBdt": 0.0},
    "slices": {}
  },
  "time": {
    "samples": {
      "AcquisitionNumber": [1, 2, 3, 4, 5, 6, 7, 8, 9, 10, 11, 12, 13, 14, 15, 16, 17, 18, 19, 20, 21, 22, 23, 24, 25, 26, 27, 28, 29, 30, 31, 32, 33, 34, 35, 36, 37, 38, 39, 40, 41, 42, 43, 44, 45, 46, 47, 48, 49, 50, 51, 52, 53, 54, 55, 56, 57, 58, 59, 60, 61, 62, 63, 64, 65, 66, 67, 68, 69, 70, 71, 72, 73, 74, 75, 76, 77, 78, 79, 80, 81, 82, 83, 84, 85, 86, 87, 88, 89, 90, 91, 92, 93, 94, 95, 96, 97, 98, 99, 100, 101, 102, 103, 104, 105, 106, 107, 108, 109, 110, 111, 112, 113, 114, 115, 116, 117, 118, 119, 120, 121, 122, 123, 124, 125, 126, 127, 128, 129, 130, 131, 132, 133, 134, 135, 136, 137, 138, 139, 140, 141, 142, 143, 144, 145, 146, 147, 148, 149, 150, 151, 152, 153, 154, 155, 156, 157, 158, 159, 160, 161, 162, 163, 164, 165, 166, 167, 168, 169, 170, 171, 172, 173, 174, 175, 176, 177, 178, 179, 180, 181, 182, 183, 184, 185, 186, 187, 188, 189, 190, 191, 192, 193, 194, 195, 196, 197, 198, 199, 200, 201, 202, 203, 204, 205, 206, 207, 208, 209, 210, 211, 212, 213, 214, 215, 216, 217, 218, 219, 220, 221, 222, 223, 224, 225, 226, 227, 228, 229, 230, 231, 232, 233, 234, 235, 236, 237, 238, 239, 240, 241, 242, 243, 244, 245, 246, 247, 248, 249, 250, 251, 252, 253, 254, 255, 256, 257, 258, 259, 260, 261, 262, 263, 264, 265, 266, 267, 268, 269, 270, 271, 272, 273, 274, 275, 276, 277, 278, 279, 280, 281, 282, 283, 284, 285, 286, 287, 288, 289, 290, 291, 292, 293, 294, 295, 296, 297, 298, 299, 300, 301, 302, 303, 304, 305, 306, 307, 308, 309, 310, 311, 312, 313, 314, 315, 316, 317, 318, 319, 320, 321, 322, 323, 324, 325, 326, 327, 328, 329, 330, 331, 332, 333, 334, 335, 336, 337, 338, 339, 340, 341, 342, 343, 344, 345, 346, 347, 348, 349, 350, 351, 352, 353, 354, 355, 356, 357, 358, 359, 360, 361, 362, 363, 364, 365, 366, 367, 368, 369, 370, 371, 372, 373, 374, 375, 376, 377, 378, 379, 380, 381, 382, 383, 384, 385, 386, 387, 388, 389, 390, 391, 392, 393, 394, 395, 396, 397, 398, 399, 400, 401, 402, 403, 404, 405, 406, 407, 408, 409, 410, 411, 412, 413, 414, 415, 416, 417, 418, 419, 420, 421, 422, 423, 424, 425, 426, 427, 428, 429, 430, 431, 432, 433, 434, 435, 436, 437],
      "AcquisitionTime": ["161234.142500", "161236.142500", "161238.142500", "161240.142500", "161242.142500", "161244.142500", "161246.142500", "161248.142500", "161250.142500", "161252.142500", "161254.142500", "161256.142500", "161258.142500", "161300.142500", "161302.142500", "161304.142500", "161306.142500", "161308.142500", "161310.142500", "161312.142500", "161314.142500", "161316.142500", "161318.142500", "161320.142500", "161322.142500", "161324.142500", "161326.142500", "161328.142500", "161330.142500", "161332.142500", "161334.142500", "161336.142500", "161338.142500", "161340.142500", "161342.142500", "161344.142500", "161346.142500", "161348.142500", "161350.142500", "161352.142500", "161354.142500", "161356.142500", "161358.142500", "161400.142500", "161402.142500", "161404.142500", "161406.142500", "161408.142500", "161410.142500", "161412.142500", "161414.142500", "161416.142500", "161418.142500", "161420.142500", "161422.142500", "161424.142500", "161426.142500", "161428.142500", "161430.142500", "161432.142500", "161434.142500", "161436.142500", "161438.142500", "161440.142500", "161442.142500", "161444.142500", "161446.142500", "161448.142500", "161450.142500", "161452.142500", "161454.142500", "161456.142500", "161458.142500", "161500.142500", "161502.142500", "161504.142500", "161506.142500", "161508.142500", "161510.142500", "161512.142500", "161514.142500", "161516.142500", "161518.142500", "161520.142500", "161522.142500", "161524.142500", "161526.142500", "161528.142500", "161530.142500", "161532.142500", "161534.142500", "161536.142500", "161538.142500", "161540.142500", "161542.142500", "161544.142500", "161546.142500", "161548.142500", "161550.142500", "161552.142500", "161554.142500", "161556.142500", "161558.142500", "161600.142500", "161602.142500", "161604.142500", "161606.142500", "161608.142500", "161610.142500", "161612.142500", "161614.142500", "161616.142500", "161618.142500", "161620.142500", "161622.142500", "161624.142500", "161626.142500", "161628.142500", "161630.142500", "161632.142500", "161634.142500", "161636.142500", "161638.142500", "161640.142500", "161642.142500", "161644.142500", "161646.142500", "161648.142500", "161650.142500", "161652.142500", "161654.142500", "161656.142500", "161658.142500", "161700.142500", "161702.142500", "161704.142500", "161706.142500", "161708.142500", "161710.142500", "161712.142500", "161714.142500", "161716.142500", "161718.142500", "161720.142500", "161722.142500", "161724.142500", "161726.142500", "161728.142500", "161730.142500", "161732.142500", "161734.142500", "161736.142500", "161738.142500", "161740.142500", "161742.142500", "161744.142500", "161746.142500", "161748.142500", "161750.142500", "161752.142500", "161754.142500", "161756.142500", "161758.142500", "161800.142500", "161802.142500", "161804.142500", "161806.142500", "161808.142500", "161810.142500", "161812.142500", "161814.142500", "161816.142500", "161818.142500", "161820.142500", "161822.142500", "161824.142500", "161826.142500", "161828.142500", "161830.142500", "161832.142500", "161834.142500", "161836.142500", "161838.142500", "161840.142500", "161842.142500", "161844.142500", "161846.142500", "161848.142500", "161850.142500", "161852.142500", "161854.142500", "161856.142500", "161858.142500", "161900.142500", "161902.142500", "161904.142500", "161906.142500", "161908.142500", "161910.142500", "161912.142500", "161914.142500", "161916.142500", "161918.142500", "161920.142500", "161922.142500", "161924.142500", "161926.142500", "161928.142500", "161930.142500", "161932.142500", "161934.142500", "161936.142500", "161938.142500", "161940.142500", "161942.142500", "161944.142500", "161946.142500", "161948.142500", "161950.142500", "161952.142500", "161954.142500", "161956.142500", "161958.142500", "162000.142500", "162002.142500", "162004.142500", "162006.142500", "162008.142500", "162010.142500", "162012.142500", "162014.142500", "162016.142500", "162018.142500", "162020.142500", "162022.142500", "162024.142500", "162026.142500", "162028.142500", "162030.142500", "162032.142500", "162034.142500", "162036.142500", "162038.142500", "162040.142500", "162042.142500", "162044.142500", "162046.142500", "162048.142500", "162050.142500", "162052.142500", "162054.142500", "162056.142500", "162058.142500", "162100.142500", "162102.142500", "162104.142500", "162106.142500", "162108.142500", "162110.142500", "162112.142500", "162114.142500", "162116.142500", "162118.142500", "162120.142500", "162122.142500", "162124.142500", "162126.142500", "162128.142500", "162130.142500", "162132.142500", "162134.142500", "162136.142500", "162138.142500", "162140.142500", "162142.142500", "162144.142500", "162146.142500", "162148.142500", "162150.142500", "162152.142500", "162154.142500", "162156.142500", "162158.142500", "162200.142500", "162202.142500", "162204.142500", "162206.142500", "162208.142500", "162210.142500", "162212.142500", "162214.142500", "162216.142500", "162218.142500", "162220.142500", "162222.142500", "162224.142500", "162226.142500", "162228.142500", "162230.142500", "162232.142500", "162234.142500", "162236.142500", "162238.142500", "162240.142500", "162242.142500", "162244.142500", "162246.142500", "162248.142500", "162250.142500", "162252.142500", "162254.142500", "162256.142500", "162258.142500", "162300.142500", "162302.142500", "162304.142500", "162306.142500", "162308.142500", "162310.142500", "162312.142500", "162314.142500", "162316.142500", "162318.142500", "162320.142500", "162322.142500", "162324.142500", "162326.142500", "162328.142500", "162330.142500", "162332.142500", "162334.142500", "162336.142500", "162338.142500", "162340.142500", "162342.142500", "162344.142500", "162346.142500", "162348.142500", "162350.142500", "162352.142500", "162354.142500", "162356.142500", "162358.142500", "162400.142500", "162402.142500", "162404.142500", "162406.142500", "162408.142500", "162410.142500", "162412.142500", "162414.142500", "162416.142500", "162418.142500", "162420.142500", "162422.142500", "162424.142500", "162426.142500", "162428.142500", "162430.142500", "162432.142500", "162434.142500", "162436.142500", "162438.142500", "162440.142500", "162442.142500", "162444.142500", "162446.142500", "162448.142500", "162450.142500", "162452.142500", "162454.142500", "162456.142500", "162458.142500", "162500.142500", "162502.142500", "162504.142500", "162506.142500", "162508.142500", "162510.142500", "162512.142500", "162514.142500", "162516.142500", "162518.142500", "162520.142500", "162522.142500", "162524.142500", "162526.142500", "162528.142500", "162530.142500", "162532.142500", "162534.142500", "162536.142500", "162538.142500", "162540.142500", "162542.142500", "162544.142500", "162546.142500", "162548.142500", "162550.142500", "162552.142500", "162554.142500", "162556.142500", "162558.142500", "162600.142500", "162602.142500", "162604.142500", "162606.142500", "162608.142500", "162610.142500", "162612.142500", "162614.142500", "162616.142500", "162618.142500", "162620.142500", "162622.142500", "162624.142500", "162626.142500", "162628.142500", "162630.142500", "162632.142500", "162634.142500", "162636.142500", "162638.142500", "162640.142500", "162642.142500", "162644.142500", "162646.142500", "162648.142500", "162650.142500", "162652.142500", "162654.142500", "162656.142500", "162658.142500", "162700.142500", "162702.142500", "162704.142500", "162706.142500"],
      "ContentTime": ["161324.009000", "161324.013000", "161324.016000", "161324.018000", "161324.021000", "161324.024000", "161324.027000", "161324.030000", "161324.032000", "161324.035000", "161324.038000", "161324.041000", "161324.043000", "161324.046000", "161324.049000", "161324.056000", "161324.059000", "161324.066000", "161324.068000", "161324.071000", "161324.074000", "161324.077000", "161324.079000", "161324.082000", "161324.085000", "161404.004000", "161404.007000", "161404.009000", "161404.012000", "161404.015000", "161404.018000", "161404.020000", "161404.023000", "161404.026000", "161404.029000", "161404.031000", "161404.034000", "161404.037000", "161404.046000", "161404.049000", "161404.052000", "161404.054000", "161404.057000", "161404.060000", "161404.062000", "161444.004000", "161444.007000", "161444.010000", "161444.012000", "161444.015000", "161444.018000", "161444.020000", "161444.023000", "161444.026000", "161444.029000", "161444.031000", "161444.034000", "161444.037000", "161444.039000", "161444.042000", "161444.045000", "161444.048000", "161444.050000", "161444.053000", "161444.056000", "161524.005000", "161524.008000", "161524.010000", "161524.013000", "161524.016000", "161524.019000", "161524.021000", "161524.024000", "161524.027000", "161524.030000", "161524.032000", "161524.035000", "161524.038000", "161524.041000", "161524.043000", "161524.046000", "161524.049000", "161524.052000", "161524.054000", "161524.057000", "161604.005000", "161604.008000", "161604.011000", "161604.013000", "161604.016000", "161604.019000", "161604.022000", "161604.024000", "161604.027000", "161604.030000", "161604.033000", "161604.035000", "161604.038000", "161604.041000", "161604.043000", "161604.046000", "161604.049000", "161604.052000", "161604.055000", "161604.057000", "161644.004000", "161644.007000", "161644.010000", "161644.012000", "161644.015000", "161644.018000", "161644.021000", "161644.023000", "161644.026000", "161644.029000", "161644.032000", "161644.034000", "161644.037000", "161644.040000", "161644.055000", "161644.058000", "161644.061000", "161644.064000", "161644.066000", "161644.069000", "161724.004000", "161724.007000", "161724.010000", "161724.012000", "161724.015000", "161724.018000", "161724.021000", "161724.023000", "161724.026000", "161724.029000", "161724.032000", "161724.034000", "161724.037000", "161724.040000", "161724.043000", "161724.045000", "161724.048000", "161724.051000", "161724.054000", "161724.056000", "161804.005000", "161804.019000", "161804.021000", "161804.024000", "161804.027000", "161804.030000", "161804.032000", "161804.035000", "161804.038000", "161804.041000", "161804.043000", "161804.046000", "161804.049000", "161804.051000", "161804.054000", "161804.057000", "161804.060000", "161804.063000", "161804.065000", "161804.068000", "161844.004000", "161844.009000", "161844.012000", "161844.015000", "161844.018000", "161844.020000", "161844.023000", "161844.026000", "161844.029000", "161844.031000", "161844.034000", "161844.037000", "161844.040000", "161844.042000", "161844.045000", "161844.048000", "161844.050000", "161844.053000", "161844.056000", "161844.059000", "161924.004000", "161924.007000", "161924.009000", "161924.012000", "161924.015000", "161924.018000", "161924.021000", "161924.023000", "161924.026000", "161924.029000", "161924.031000", "161924.034000", "161924.037000", "161924.040000", "161924.042000", "161924.045000", "161924.048000", "161924.051000", "161924.053000", "161924.056000", "162004.005000", "162004.008000", "162004.010000", "162004.013000", "162004.016000", "162004.019000", "162004.022000", "162004.024000", "162004.027000", "162004.030000", "162004.033000", "162004.035000", "162004.038000", "162004.041000", "162004.044000", "162004.046000", "162004.049000", "162004.052000", "162004.055000", "162004.057000", "162044.005000", "162044.014000", "162044.017000", "162044.020000", "162044.022000", "162044.025000", "162044.028000", "162044.031000", "162044.033000", "162044.036000", "162044.039000", "162044.042000", "162044.044000", "162044.047000", "162044.050000", "162044.053000", "162044.055000", "162044.058000", "162044.061000", "162044.063000", "162124.004000", "162124.007000", "162124.010000", "162124.012000", "162124.015000", "162124.018000", "162124.021000", "162124.023000", "162124.026000", "162124.029000", "162124.032000", "162124.034000", "162124.037000", "162124.040000", "162124.042000", "162124.045000", "162124.048000", "162124.051000", "162124.053000", "162124.056000", "162204.004000", "162204.007000", "162204.010000", "162204.012000", "162204.015000", "162204.018000", "162204.021000", "162204.023000", "162204.026000", "162204.029000", "162204.032000", "162204.034000", "162204.037000", "162204.040000", "162204.042000", "162204.045000", "162204.048000", "162204.051000", "162204.053000", "162204.056000", "162244.005000", "162244.008000", "162244.010000", "162244.013000", "162244.016000", "162244.019000", "162244.022000", "162244.024000", "162244.027000", "162244.030000", "162244.033000", "162244.035000", "162244.038000", "162244.041000", "162244.044000", "162244.046000", "162244.049000", "162244.052000", "162244.054000", "162244.057000", "162324.004000", "162324.007000", "162324.010000", "162324.013000", "162324.015000", "162324.018000", "162324.021000", "162324.024000", "162324.026000", "162324.029000", "162324.032000", "162324.035000", "162324.037000", "162324.040000", "162324.043000", "162324.045000", "162324.048000", "162324.051000", "162324.054000", "162324.056000", "162404.004000", "162404.007000", "162404.010000", "162404.013000", "162404.015000", "162404.019000", "162404.025000", "162404.028000", "162404.031000", "162404.033000", "162404.036000", "162404.039000", "162404.042000", "162404.045000", "162404.047000", "162404.050000", "162404.053000", "162404.056000", "162404.059000", "162404.061000", "162444.005000", "162444.008000", "162444.011000", "162444.013000", "162444.016000", "162444.019000", "162444.021000", "162444.024000", "162444.027000", "162444.030000", "162444.033000", "162444.035000", "162444.038000", "162444.041000", "162444.044000", "162444.046000", "162444.049000", "162444.052000", "162444.055000", "162444.057000", "162524.005000", "162524.008000", "162524.011000", "162524.013000", "162524.016000", "162524.019000", "162524.021000", "162524.024000", "162524.027000", "162524.030000", "162524.033000", "162524.035000", "162524.038000", "162524.041000", "162524.044000", "162524.046000", "162524.049000", "162524.052000", "162524.054000", "162524.057000", "162604.004000", "162604.007000", "162604.010000", "162604.012000", "162604.015000", "162604.018000", "162604.021000", "162604.024000", "162604.026000", "162604.029000", "162604.032000", "162604.035000", "162604.037000", "162604.040000", "162604.043000", "162604.045000", "162604.048000", "162604.051000", "162604.054000", "162604.056000", "162644.004000", "162644.007000", "162644.010000", "162644.013000", "162644.015000", "162644.018000", "162644.021000", "162644.024000", "162644.026000", "162644.029000", "162644.032000", "162644.035000", "162644.037000", "162644.040000", "162644.043000", "162644.045000", "162644.048000", "162644.051000", "162644.054000", "162644.056000", "162707.918000", "162707.921000", "162707.924000", "162707.927000", "162707.930000", "162707.933000", "162707.935000", "162707.938000", "162707.941000", "162707.944000", "162707.946000", "162707.949000"],
      "DataSetTrailingPadding": [
        "\u0000\u0000\u0000\u0000\u0000\u0000\u0000\u0000\u0000\u0000\u0000\u0000\u0000\u0000\u0000\u0000\u0000\u0000\u0000\u0000\u0000\u0000\u0000\u0000\u0000\u0000\u0000\u0000\u0000\u0000\u0000\u0000\u0000\u0000\u0000\u0000\u0000\u0000\u0000\u0000\u0000\u0000\u0000\u0000\u0000\u0000\u0000\u0000\u0000\u0000\u0000\u0000\u0000\u0000\u0000\u0000\u0000\u0000\u0000\u0000\u0000\u0000\u0000\u0000\u0000\u0000\u0000\u0000\u0000\u0000\u0000\u0000\u0000\u0000\u0000\u0000\u0000\u0000\u0000\u0000\u0000\u0000\u0000\u0000\u0000\u0000\u0000\u0000\u0000\u0000\u0000\u0000\u0000\u0000\u0000\u0000\u0000\u0000\u0000\u0000\u0000\u0000\u0000\u0000\u0000\u0000\u0000\u0000\u0000\u0000\u0000\u0000\u0000\u0000\u0000\u0000\u0000\u0000\u0000\u0000\u0000\u0000\u0000\u0000\u0000\u0000\u0000\u0000\u0000\u0000\u0000\u0000\u0000\u0000\u0000\u0000\u0000\u0000\u0000\u0000\u0000\u0000\u0000\u0000\u0000\u0000\u0000\u0000\u0000\u0000\u0000\u0000\u0000\u0000\u0000\u0000\u0000\u0000\u0000\u0000\u0000\u0000\u0000\u0000\u0000\u0000\u0000\u0000\u0000\u0000\u0000\u0000\u0000\u0000\u0000\u0000\u0000\u0000\u0000\u0000\u0000\u0000\u0000\u0000\u0000\u0000\u0000\u0000\u0000\u0000\u0000\u0000\u0000\u0000\u0000\u0000\u0000\u0000\u0000\u0000\u0000\u0000\u0000\u0000\u0000\u0000\u0000\u0000\u0000\u0000\u0000\u0000\u0000\u0000\u0000\u0000\u0000\u0000\u0000\u0000\u0000\u0000\u0000\u0000\u0000\u0000\u0000\u0000\u0000\u0000\u0000\u0000\u0000\u0000\u0000\u0000\u0000\u0000\u0000\u0000\u0000\u0000\u0000\u0000\u0000\u0000\u0000\u0000\u0000\u0000\u0000\u0000\u0000\u0000\u0000\u0000\u0000\u0000\u0000\u0000\u0000\u0000\u0000\u0000\u0000\u0000\u0000\u0000\u0000\u0000\u0000\u0000\u0000\u0000\u0000\u0000\u0000\u0000\u0000\u0000\u0000\u0000\u0000\u0000\u0000\u0000\u0000\u0000\u0000\u0000\u0000\u0000\u0000\u0000\u0000\u0000\u0000\u0000\u0000\u0000\u0000\u0000\u0000\u0000\u0000\u0000\u0000\u0000\u0000\u0000\u0000\u0000\u0000\u0000\u0000\u0000\u0000\u0000\u0000\u0000\u0000\u0000\u0000\u0000\u0000\u0000\u0000\u0000\u0000\u0000\u0000\u0000\u0000\u0000\u0000\u0000\u0000\u0000\u0000\u0000\u0000\u0000\u0000\u0000\u0000\u0000\u0000\u0000",
        "\u0000\u0000\u0000\u0000\u0000\u0000\u0000\u0000\u0000\u0000\u0000\u0000\u0000\u0000\u0000\u0000\u0000\u0000\u0000\u0000\u0000\u0000\u0000\u0000\u0000\u0000\u0000\u0000\u0000\u0000\u0000\u0000\u0000\u0000\u0000\u0000\u0000\u0000\u0000\u0000\u0000\u0000\u0000\u0000\u0000\u0000\u0000\u0000\u0000\u0000\u0000\u0000\u0000\u0000\u0000\u0000\u0000\u0000\u0000\u0000\u0000\u0000\u0000\u0000\u0000\u0000\u0000\u0000\u0000\u0000\u0000\u0000\u0000\u0000\u0000\u0000\u0000\u0000\u0000\u0000\u0000\u0000\u0000\u0000\u0000\u0000\u0000\u0000\u0000\u0000\u0000\u0000\u0000\u0000\u0000\u0000\u0000\u0000\u0000\u0000\u0000\u0000\u0000\u0000\u0000\u0000\u0000\u0000\u0000\u0000\u0000\u0000\u0000\u0000\u0000\u0000\u0000\u0000\u0000\u0000\u0000\u0000\u0000\u0000\u0000\u0000\u0000\u0000\u0000\u0000\u0000\u0000\u0000\u0000\u0000\u0000\u0000\u0000\u0000\u0000\u0000\u0000\u0000\u0000\u0000\u0000\u0000\u0000\u0000\u0000\u0000\u0000\u0000\u0000\u0000\u0000\u0000\u0000\u0000\u0000\u0000\u0000\u0000\u0000\u0000\u0000\u0000\u0000\u0000\u0000\u0000\u0000\u0000\u0000\u0000\u0000\u0000\u0000\u0000\u0000\u0000\u0000\u0000\u0000\u0000\u0000\u0000\u0000\u0000\u0000\u0000\u0000\u0000\u0000\u0000\u0000\u0000\u0000\u0000\u0000\u0000\u0000\u0000\u0000\u0000\u0000\u0000\u0000\u0000\u0000\u0000\u0000\u0000\u0000\u0000\u0000\u0000\u0000\u0000\u0000\u0000\u0000\u0000\u0000\u0000\u0000\u0000\u0000\u0000\u0000\u0000\u0000\u0000\u0000\u0000\u0000\u0000\u0000\u0000\u0000\u0000\u0000\u0000\u0000\u0000\u0000\u0000\u0000\u0000\u0000\u0000\u0000\u0000\u0000\u0000\u0000\u0000\u0000\u0000\u0000\u0000\u0000\u0000\u0000\u0000\u0000\u0000\u0000\u0000\u0000\u0000\u0000\u0000\u0000\u0000\u0000\u0000\u0000\u0000\u0000\u0000\u0000\u0000\u0000\u0000\u0000\u0000\u0000\u0000\u0000\u0000\u0000\u0000\u0000\u0000\u0000\u0000\u0000\u0000\u0000\u0000\u0000\u0000\u0000\u0000\u0000\u0000\u0000\u0000\u0000\u0000\u0000\u0000\u0000\u0000\u0000\u0000\u0000\u0000\u0000\u0000\u0000\u0000\u0000\u0000\u0000\u0000\u0000\u0000\u0000\u0000\u0000\u0000\u0000\u0000\u0000\u0000\u0000\u0000\u0000\u0000\u0000\u0000\u0000\u0000\u0000\u0000\u0000",
        "\u0000\u0000\u0000\u0000\u0000\u0000\u0000\u0000\u0000\u0000\u0000\u0000\u0000\u0000\u0000\u0000\u0000\u0000\u0000\u0000\u0000\u0000\u0000\u0000\u0000\u0000\u0000\u0000\u0000\u0000\u0000\u0000\u0000\u0000\u0000\u0000\u0000\u0000\u0000\u0000\u0000\u0000\u0000\u0000\u0000\u0000\u0000\u0000\u0000\u0000\u0000\u0000\u0000\u0000\u0000\u0000\u0000\u0000\u0000\u0000\u0000\u0000\u0000\u0000\u0000\u0000\u0000\u0000\u0000\u0000\u0000\u0000\u0000\u0000\u0000\u0000\u0000\u0000\u0000\u0000\u0000\u0000\u0000\u0000\u0000\u0000\u0000\u0000\u0000\u0000\u0000\u0000\u0000\u0000\u0000\u0000\u0000\u0000\u0000\u0000\u0000\u0000\u0000\u0000\u0000\u0000\u0000\u0000\u0000\u0000\u0000\u0000\u0000\u0000\u0000\u0000\u0000\u0000\u0000\u0000\u0000\u0000\u0000\u0000\u0000\u0000\u0000\u0000\u0000\u0000\u0000\u0000\u0000\u0000\u0000\u0000\u0000\u0000\u0000\u0000\u0000\u0000\u0000\u0000\u0000\u0000\u0000\u0000\u0000\u0000\u0000\u0000\u0000\u0000\u0000\u0000\u0000\u0000\u0000\u0000\u0000\u0000\u0000\u0000\u0000\u0000\u0000\u0000\u0000\u0000\u0000\u0000\u0000\u0000\u0000\u0000\u0000\u0000\u0000\u0000\u0000\u0000\u0000\u0000\u0000\u0000\u0000\u0000\u0000\u0000\u0000\u0000\u0000\u0000\u0000\u0000\u0000\u0000\u0000\u0000\u0000\u0000\u0000\u0000\u0000\u0000\u0000\u0000\u0000\u0000\u0000\u0000\u0000\u0000\u0000\u0000\u0000\u0000\u0000\u0000\u0000\u0000\u0000\u0000\u0000\u0000\u0000\u0000\u0000\u0000\u0000\u0000\u0000\u0000\u0000\u0000\u0000\u0000\u0000\u0000\u0000\u0000\u0000\u0000\u0000\u0000\u0000\u0000\u0000\u0000\u0000\u0000\u0000\u0000\u0000\u0000\u0000\u0000\u0000\u0000\u0000\u0000\u0000\u0000\u0000\u0000\u0000\u0000\u0000\u0000\u0000\u0000\u0000\u0000\u0000\u0000\u0000\u0000\u0000\u0000\u0000\u0000\u0000\u0000\u0000\u0000\u0000\u0000\u0000\u0000\u0000\u0000\u0000\u0000\u0000\u0000\u0000\u0000\u0000\u0000\u0000\u0000\u0000\u0000\u0000\u0000\u0000\u0000\u0000\u0000\u0000\u0000\u0000\u0000\u0000\u0000\u0000\u0000\u0000\u0000\u0000\u0000\u0000\u0000\u0000\u0000\u0000\u0000\u0000\u0000\u0000\u0000\u0000\u0000\u0000\u0000\u0000\u0000\u0000\u0000\u0000\u0000\u0000\u0000\u0000\u0000\u0000\u0000",
