{
  "AcquisitionMatrixPE": 70,
  "AcquisitionNumber": 1,
  "AcquisitionTime": "14:48:13.107500",
  "BandwidthPerPixelPhaseEncode": 51.948,
  "BaseResolution": 70,
  "BodyPartExamined": "HEAD",
  "CoilCombinationMethod": "Sum of Squares",
  "ConsistencyInfo": "N4_VE11C_LATEST_20160120",
  "ConversionSoftware": "dcm2niix",
  "ConversionSoftwareVersion": "v1.0.20220720",
  "DerivedVendorReportedEchoSpacing": 0.000550001,
  "DeviceSerialNumber": "66061",
  "DwellTime": 3.3e-06,
  "EchoTime": 0.022,
  "EchoTrainLength": 35,
  "EffectiveEchoSpacing": 0.000275,
  "FlipAngle": 90,
  "HeudiconvVersion": "1.1.1",
  "ImageOrientationPatientDICOM": [0.998585, 0.0126213, 0.0516502, -0.00121995, 0.976601, -0.215057],
  "ImageOrientationText": "Tra>Cor(-12.4)>Sag(3.0)",
  "ImageType": [
    "ORIGINAL",
    "PRIMARY",
    "M",
    "ND",
    "NORM",
    "MOSAIC"
],
  "ImagingFrequency": 123.254,
  "InPlanePhaseEncodingDirectionDICOM": "COL",
  "InstitutionAddress": "Street StreetNo,City/1c4204/,District,KR,ZIP",
  "InstitutionName": "SKKU",
  "InstitutionalDepartmentName": "Department",
  "MRAcquisitionType": "2D",
  "MagneticFieldStrength": 3,
  "Manufacturer": "Siemens",
  "ManufacturersModelName": "Prisma",
  "MatrixCoilMode": "GRAPPA",
  "Modality": "MR",
  "NonlinearGradientCorrection": false,
  "ParallelReductionFactorInPlane": 2,
  "PartialFourier": 1,
  "PatientPosition": "HFS",
  "PercentPhaseFOV": 100,
  "PercentSampling": 100,
  "PhaseEncodingDirection": "j-",
  "PhaseEncodingSteps": 70,
  "PhaseResolution": 1,
  "PixelBandwidth": 2165,
  "ProcedureStepDescription": "Head^PI:Others",
  "ProtocolName": "BOLD_ep2d_3x3x3_response1",
  "PulseSequenceDetails": "%SiemensSeq%\\ep2d_pace",
  "ReceiveCoilActiveElements": "HC1-7",
  "ReceiveCoilName": "HeadNeck_64",
  "ReconMatrixPE": 70,
  "RefLinesPE": 24,
  "RepetitionTime": 2,
  "SAR": 0.11935,
  "ScanOptions": "FS",
  "ScanningSequence": "EP",
  "SequenceName": "*epfid2d1_70",
  "SequenceVariant": "SK",
  "SeriesDescription": "BOLD_ep2d_3x3x3_response1",
  "SeriesNumber": 4,
  "ShimSetting": [5055, 3701, 4392, 326, -43, -107, -15, -11],
  "SliceThickness": 3,
  "SliceTiming": [0.99, 0, 1.0375, 0.0475, 1.085, 0.095, 1.1325, 0.1425, 1.18, 0.19, 1.2275, 0.2375, 1.275, 0.285, 1.32, 0.33, 1.3675, 0.3775, 1.415, 0.425, 1.4625, 0.4725, 1.51, 0.52, 1.5575, 0.5675, 1.605, 0.615, 1.65, 0.66, 1.6975, 0.7075, 1.745, 0.755, 1.7925, 0.8025, 1.84, 0.85, 1.8875, 0.8975, 1.935, 0.945],
  "SoftwareVersions": "syngo MR E11",
  "SpacingBetweenSlices": 3,
  "StationName": "AWP66061",
  "TaskName": "response",
  "TotalReadoutTime": 0.018975,
  "TxRefAmp": 242.78,
  "dcmmeta_affine": [
    [-2.9957563877105713, -0.0036598388105630875, 0.1594678908586502, 106.99334716796875],
    [-0.037863947451114655, 2.9298019409179688, -0.6440704464912415, -80.25566101074219],
    [0.15495072305202484, 0.6451720595359802, 2.925703763961792, -74.55545806884766],
    [0.0, 0.0, 0.0, 1.0]
],
  "dcmmeta_reorient_transform": [
    [0.0, -1.0, 0.0, 69.0],
    [1.0, 0.0, 0.0, 0.0],
    [0.0, 0.0, -1.0, 41.0],
    [0.0, 0.0, 0.0, 1.0]
],
  "dcmmeta_shape": [70, 70, 42, 341],
  "dcmmeta_slice_dim": 2,
  "dcmmeta_version": 0.6,
  "global": {
    "const": {
      "AcquisitionMatrix": [70, 0, 0, 70],
      "AngioFlag": "N",
      "BitsAllocated": 16,
      "BitsStored": 12,
      "BodyPartExamined": "HEAD",
      "Columns": 490,
      "EchoNumbers": 1,
      "EchoTime": 22.0,
      "EchoTrainLength": 35,
      "FlipAngle": 90.0,
      "HighBit": 11,
      "ImageOrientationPatient": [0.99858547705694, 0.01262131553166, 0.05165024109533, -0.0012199462625, 0.97660065748565, -0.215057358697],
      "ImagePositionPatient": [-741.61928628106, -718.70363272693, 192.86175402022],
      "ImageType": [
        "ORIGINAL",
        "PRIMARY",
        "M",
        "ND",
        "NORM",
        "MOSAIC"
],
      "ImagedNucleus": "1H",
      "ImagingFrequency": 123.254491,
      "InPlanePhaseEncodingDirection": "COL",
      "MRAcquisitionType": "2D",
      "MagneticFieldStrength": 3.0,
      "Manufacturer": "SIEMENS",
      "ManufacturerModelName": "Prisma",
      "Modality": "MR",
      "NumberOfAverages": 1.0,
      "NumberOfPhaseEncodingSteps": 70,
      "PercentPhaseFieldOfView": 100.0,
      "PercentSampling": 100.0,
      "PerformedProcedureStepStartTime": "141912.735000",
      "PhotometricInterpretation": "MONOCHROME2",
      "PixelBandwidth": 2165.0,
      "PixelRepresentation": 0,
      "PixelSpacing": [3.0, 3.0],
      "ProtocolName": "BOLD_ep2d_3x3x3_response1",
      "RepetitionTime": 2000.0,
      "Rows": 490,
      "SAR": 0.11935033980021,
      "SamplesPerPixel": 1,
      "ScanOptions": "FS",
      "ScanningSequence": "EP",
      "SequenceName": "*epfid2d1_70",
      "SequenceVariant": "SK",
      "SeriesDescription": "BOLD_ep2d_3x3x3_response1",
      "SeriesNumber": 4,
      "SeriesTime": "144853.551000",
      "SliceLocation": 73.208364341305,
      "SliceThickness": 3.0,
      "SmallestImagePixelValue": 0,
      "SoftwareVersions": "syngo MR E11",
      "SpacingBetweenSlices": 2.9999999569623,
      "SpecificCharacterSet": "ISO_IR 100",
      "StudyID": "1",
      "StudyTime": "141912.653000",
      "TransmitCoilName": "Body",
      "VariableFlipAngleFlag": "N",
      "WindowCenterWidthExplanation": "Algo1",
      "dBdt": 0.0},
    "slices": {}
  },
  "time": {
    "samples": {
      "AcquisitionNumber": [1, 2, 3, 4, 5, 6, 7, 8, 9, 10, 11, 12, 13, 14, 15, 16, 17, 18, 19, 20, 21, 22, 23, 24, 25, 26, 27, 28, 29, 30, 31, 32, 33, 34, 35, 36, 37, 38, 39, 40, 41, 42, 43, 44, 45, 46, 47, 48, 49, 50, 51, 52, 53, 54, 55, 56, 57, 58, 59, 60, 61, 62, 63, 64, 65, 66, 67, 68, 69, 70, 71, 72, 73, 74, 75, 76, 77, 78, 79, 80, 81, 82, 83, 84, 85, 86, 87, 88, 89, 90, 91, 92, 93, 94, 95, 96, 97, 98, 99, 100, 101, 102, 103, 104, 105, 106, 107, 108, 109, 110, 111, 112, 113, 114, 115, 116, 117, 118, 119, 120, 121, 122, 123, 124, 125, 126, 127, 128, 129, 130, 131, 132, 133, 134, 135, 136, 137, 138, 139, 140, 141, 142, 143, 144, 145, 146, 147, 148, 149, 150, 151, 152, 153, 154, 155, 156, 157, 158, 159, 160, 161, 162, 163, 164, 165, 166, 167, 168, 169, 170, 171, 172, 173, 174, 175, 176, 177, 178, 179, 180, 181, 182, 183, 184, 185, 186, 187, 188, 189, 190, 191, 192, 193, 194, 195, 196, 197, 198, 199, 200, 201, 202, 203, 204, 205, 206, 207, 208, 209, 210, 211, 212, 213, 214, 215, 216, 217, 218, 219, 220, 221, 222, 223, 224, 225, 226, 227, 228, 229, 230, 231, 232, 233, 234, 235, 236, 237, 238, 239, 240, 241, 242, 243, 244, 245, 246, 247, 248, 249, 250, 251, 252, 253, 254, 255, 256, 257, 258, 259, 260, 261, 262, 263, 264, 265, 266, 267, 268, 269, 270, 271, 272, 273, 274, 275, 276, 277, 278, 279, 280, 281, 282, 283, 284, 285, 286, 287, 288, 289, 290, 291, 292, 293, 294, 295, 296, 297, 298, 299, 300, 301, 302, 303, 304, 305, 306, 307, 308, 309, 310, 311, 312, 313, 314, 315, 316, 317, 318, 319, 320, 321, 322, 323, 324, 325, 326, 327, 328, 329, 330, 331, 332, 333, 334, 335, 336, 337, 338, 339, 340, 341],
      "AcquisitionTime": ["144813.107500", "144815.107500", "144817.107500", "144819.107500", "144821.107500", "144823.107500", "144825.107500", "144827.107500", "144829.107500", "144831.107500", "144833.107500", "144835.107500", "144837.107500", "144839.107500", "144841.107500", "144843.107500", "144845.107500", "144847.107500", "144849.107500", "144851.107500", "144853.107500", "144855.107500", "144857.107500", "144859.107500", "144901.107500", "144903.107500", "144905.107500", "144907.107500", "144909.107500", "144911.107500", "144913.107500", "144915.107500", "144917.107500", "144919.107500", "144921.107500", "144923.107500", "144925.107500", "144927.107500", "144929.107500", "144931.107500", "144933.107500", "144935.107500", "144937.107500", "144939.107500", "144941.107500", "144943.107500", "144945.107500", "144947.107500", "144949.107500", "144951.107500", "144953.107500", "144955.107500", "144957.107500", "144959.107500", "145001.107500", "145003.107500", "145005.107500", "145007.107500", "145009.107500", "145011.107500", "145013.107500", "145015.107500", "145017.107500", "145019.107500", "145021.107500", "145023.107500", "145025.107500", "145027.107500", "145029.107500", "145031.107500", "145033.107500", "145035.107500", "145037.107500", "145039.107500", "145041.107500", "145043.107500", "145045.107500", "145047.107500", "145049.107500", "145051.107500", "145053.107500", "145055.107500", "145057.107500", "145059.107500", "145101.107500", "145103.107500", "145105.107500", "145107.107500", "145109.107500", "145111.107500", "145113.107500", "145115.107500", "145117.107500", "145119.107500", "145121.107500", "145123.107500", "145125.107500", "145127.107500", "145129.107500", "145131.107500", "145133.107500", "145135.107500", "145137.107500", "145139.107500", "145141.107500", "145143.107500", "145145.107500", "145147.107500", "145149.107500", "145151.107500", "145153.107500", "145155.107500", "145157.107500", "145159.107500", "145201.107500", "145203.107500", "145205.107500", "145207.107500", "145209.107500", "145211.107500", "145213.107500", "145215.107500", "145217.107500", "145219.107500", "145221.107500", "145223.107500", "145225.107500", "145227.107500", "145229.107500", "145231.107500", "145233.107500", "145235.107500", "145237.107500", "145239.107500", "145241.107500", "145243.107500", "145245.107500", "145247.107500", "145249.107500", "145251.107500", "145253.107500", "145255.107500", "145257.107500", "145259.107500", "145301.107500", "145303.107500", "145305.107500", "145307.107500", "145309.107500", "145311.107500", "145313.107500", "145315.107500", "145317.107500", "145319.107500", "145321.107500", "145323.107500", "145325.107500", "145327.107500", "145329.107500", "145331.107500", "145333.107500", "145335.107500", "145337.107500", "145339.107500", "145341.107500", "145343.107500", "145345.107500", "145347.107500", "145349.107500", "145351.107500", "145353.107500", "145355.107500", "145357.107500", "145359.107500", "145401.107500", "145403.107500", "145405.107500", "145407.107500", "145409.107500", "145411.107500", "145413.107500", "145415.107500", "145417.107500", "145419.107500", "145421.107500", "145423.107500", "145425.107500", "145427.107500", "145429.107500", "145431.107500", "145433.107500", "145435.107500", "145437.107500", "145439.107500", "145441.107500", "145443.107500", "145445.107500", "145447.107500", "145449.107500", "145451.107500", "145453.107500", "145455.107500", "145457.107500", "145459.107500", "145501.107500", "145503.107500", "145505.107500", "145507.107500", "145509.107500", "145511.107500", "145513.107500", "145515.107500", "145517.107500", "145519.107500", "145521.107500", "145523.107500", "145525.107500", "145527.107500", "145529.107500", "145531.107500", "145533.107500", "145535.107500", "145537.107500", "145539.107500", "145541.107500", "145543.107500", "145545.107500", "145547.107500", "145549.107500", "145551.107500", "145553.107500", "145555.107500", "145557.107500", "145559.107500", "145601.107500", "145603.107500", "145605.107500", "145607.107500", "145609.107500", "145611.107500", "145613.107500", "145615.107500", "145617.107500", "145619.107500", "145621.107500", "145623.107500", "145625.107500", "145627.107500", "145629.107500", "145631.107500", "145633.107500", "145635.107500", "145637.107500", "145639.107500", "145641.107500", "145643.107500", "145645.107500", "145647.107500", "145649.107500", "145651.107500", "145653.107500", "145655.107500", "145657.107500", "145659.107500", "145701.107500", "145703.107500", "145705.107500", "145707.107500", "145709.107500", "145711.107500", "145713.107500", "145715.107500", "145717.107500", "145719.107500", "145721.107500", "145723.107500", "145725.107500", "145727.107500", "145729.107500", "145731.107500", "145733.107500", "145735.107500", "145737.107500", "145739.107500", "145741.107500", "145743.107500", "145745.107500", "145747.107500", "145749.107500", "145751.107500", "145753.107500", "145755.107500", "145757.107500", "145759.107500", "145801.107500", "145803.107500", "145805.107500", "145807.107500", "145809.107500", "145811.107500", "145813.107500", "145815.107500", "145817.107500", "145819.107500", "145821.107500", "145823.107500", "145825.107500", "145827.107500", "145829.107500", "145831.107500", "145833.107500", "145835.107500", "145837.107500", "145839.107500", "145841.107500", "145843.107500", "145845.107500", "145847.107500", "145849.107500", "145851.107500", "145853.107500", "145855.107500", "145857.107500", "145859.107500", "145901.107500", "145903.107500", "145905.107500", "145907.107500", "145909.107500", "145911.107500", "145913.107500", "145915.107500", "145917.107500", "145919.107500", "145921.107500", "145923.107500", "145925.107500", "145927.107500", "145929.107500", "145931.107500", "145933.107500"],
      "ContentTime": ["144853.555000", "144853.558000", "144853.561000", "144853.563000", "144853.566000", "144853.569000", "144853.571000", "144853.583000", "144853.586000", "144853.589000", "144853.591000", "144853.594000", "144853.597000", "144853.599000", "144853.602000", "144853.605000", "144853.607000", "144853.610000", "144853.613000", "144853.615000", "144933.550000", "144933.553000", "144933.555000", "144933.558000", "144933.561000", "144933.563000", "144933.566000", "144933.569000", "144933.576000", "144933.578000", "144933.581000", "144933.584000", "144933.586000", "144933.589000", "144933.592000", "144933.594000", "144933.597000", "144933.600000", "144933.602000", "144933.605000", "145013.550000", "145013.553000", "145013.555000", "145013.558000", "145013.560000", "145013.563000", "145013.566000", "145013.568000", "145013.571000", "145013.574000", "145013.576000", "145013.579000", "145013.582000", "145013.593000", "145013.596000", "145013.599000", "145013.601000", "145013.604000", "145013.606000", "145013.609000", "145053.549000", "145053.552000", "145053.555000", "145053.558000", "145053.560000", "145053.563000", "145053.566000", "145053.568000", "145053.571000", "145053.574000", "145053.576000", "145053.579000", "145053.582000", "145053.584000", "145053.587000", "145053.590000", "145053.592000", "145053.595000", "145053.598000", "145053.600000", "145133.550000", "145133.553000", "145133.555000", "145133.558000", "145133.560000", "145133.563000", "145133.566000", "145133.568000", "145133.571000", "145133.574000", "145133.576000", "145133.579000", "145133.582000", "145133.584000", "145133.587000", "145133.589000", "145133.592000", "145133.595000", "145133.597000", "145133.600000", "145213.550000", "145213.553000", "145213.565000", "145213.568000", "145213.571000", "145213.573000", "145213.576000", "145213.579000", "145213.581000", "145213.584000", "145213.587000", "145213.589000", "145213.592000", "145213.594000", "145213.597000", "145213.607000", "145213.609000", "145213.612000", "145213.615000", "145213.617000", "145253.550000", "145253.553000", "145253.555000", "145253.558000", "145253.561000", "145253.563000", "145253.566000", "145253.569000", "145253.584000", "145253.586000", "145253.589000", "145253.592000", "145253.594000", "145253.597000", "145253.600000", "145253.602000", "145253.605000", "145253.608000", "145253.610000", "145253.613000", "145333.550000", "145333.553000", "145333.555000", "145333.558000", "145333.561000", "145333.563000", "145333.566000", "145333.568000", "145333.571000", "145333.574000", "145333.576000", "145333.579000", "145333.582000", "145333.584000", "145333.587000", "145333.590000", "145333.592000", "145333.595000", "145333.598000", "145333.600000", "145413.550000", "145413.553000", "145413.555000", "145413.558000", "145413.561000", "145413.563000", "145413.566000", "145413.569000", "145413.571000", "145413.574000", "145413.577000", "145413.579000", "145413.582000", "145413.585000", "145413.588000", "145413.590000", "145413.593000", "145413.596000", "145413.598000", "145413.601000", "145453.550000", "145453.552000", "145453.555000", "145453.558000", "145453.561000", "145453.563000", "145453.566000", "145453.569000", "145453.571000", "145453.574000", "145453.577000", "145453.579000", "145453.582000", "145453.585000", "145453.587000", "145453.590000", "145453.593000", "145453.595000", "145453.598000", "145453.601000", "145533.550000", "145533.553000", "145533.555000", "145533.558000", "145533.561000", "145533.563000", "145533.566000", "145533.569000", "145533.571000", "145533.574000", "145533.577000", "145533.579000", "145533.582000", "145533.585000", "145533.587000", "145533.590000", "145533.593000", "145533.595000", "145533.598000", "145533.601000", "145613.550000", "145613.553000", "145613.555000", "145613.558000", "145613.561000", "145613.564000", "145613.566000", "145613.569000", "145613.572000", "145613.574000", "145613.577000", "145613.580000", "145613.582000", "145613.585000", "145613.588000", "145613.590000", "145613.593000", "145613.596000", "145613.598000", "145613.601000", "145653.550000", "145653.553000", "145653.555000", "145653.558000", "145653.561000", "145653.563000", "145653.566000", "145653.569000", "145653.571000", "145653.574000", "145653.577000", "145653.579000", "145653.582000", "145653.585000", "145653.587000", "145653.590000", "145653.593000", "145653.596000", "145653.598000", "145653.601000", "145733.550000", "145733.553000", "145733.555000", "145733.558000", "145733.561000", "145733.563000", "145733.566000", "145733.569000", "145733.571000", "145733.574000", "145733.577000", "145733.579000", "145733.582000", "145733.585000", "145733.588000", "145733.590000", "145733.593000", "145733.595000", "145733.598000", "145733.601000", "145813.550000", "145813.553000", "145813.555000", "145813.558000", "145813.561000", "145813.563000", "145813.566000", "145813.569000", "145813.571000", "145813.574000", "145813.577000", "145813.579000", "145813.582000", "145813.585000", "145813.587000", "145813.590000", "145813.593000", "145813.595000", "145813.598000", "145813.601000", "145853.550000", "145853.553000", "145853.555000", "145853.558000", "145853.561000", "145853.563000", "145853.566000", "145853.569000", "145853.572000", "145853.574000", "145853.577000", "145853.580000", "145853.582000", "145853.585000", "145853.588000", "145853.590000", "145853.593000", "145853.596000", "145853.598000", "145853.601000", "145933.550000", "145933.553000", "145933.555000", "145933.574000", "145933.577000", "145933.580000", "145933.582000", "145933.585000", "145933.588000", "145933.590000", "145933.593000", "145933.596000", "145933.598000", "145933.601000", "145933.604000", "145933.606000", "145933.609000", "145933.611000", "145933.614000", "145933.617000", "145934.841000"],
      "DataSetTrailingPadding": [
        "\u0000\u0000\u0000\u0000\u0000\u0000\u0000\u0000\u0000\u0000\u0000\u0000\u0000\u0000\u0000\u0000\u0000\u0000\u0000\u0000\u0000\u0000\u0000\u0000\u0000\u0000\u0000\u0000\u0000\u0000\u0000\u0000\u0000\u0000\u0000\u0000\u0000\u0000\u0000\u0000\u0000\u0000\u0000\u0000\u0000\u0000\u0000\u0000\u0000\u0000\u0000\u0000\u0000\u0000\u0000\u0000\u0000\u0000\u0000\u0000\u0000\u0000\u0000\u0000\u0000\u0000\u0000\u0000\u0000\u0000\u0000\u0000\u0000\u0000\u0000\u0000\u0000\u0000\u0000\u0000\u0000\u0000\u0000\u0000\u0000\u0000\u0000\u0000\u0000\u0000\u0000\u0000\u0000\u0000\u0000\u0000\u0000\u0000\u0000\u0000\u0000\u0000\u0000\u0000\u0000\u0000\u0000\u0000\u0000\u0000\u0000\u0000\u0000\u0000\u0000\u0000\u0000\u0000\u0000\u0000\u0000\u0000\u0000\u0000\u0000\u0000\u0000\u0000\u0000\u0000\u0000\u0000\u0000\u0000\u0000\u0000\u0000\u0000\u0000\u0000",
        "\u0000\u0000\u0000\u0000\u0000\u0000\u0000\u0000\u0000\u0000\u0000\u0000\u0000\u0000\u0000\u0000\u0000\u0000\u0000\u0000\u0000\u0000\u0000\u0000\u0000\u0000\u0000\u0000\u0000\u0000\u0000\u0000\u0000\u0000\u0000\u0000\u0000\u0000\u0000\u0000\u0000\u0000\u0000\u0000\u0000\u0000\u0000\u0000\u0000\u0000\u0000\u0000\u0000\u0000\u0000\u0000\u0000\u0000\u0000\u0000\u0000\u0000\u0000\u0000\u0000\u0000\u0000\u0000\u0000\u0000\u0000\u0000\u0000\u0000\u0000\u0000\u0000\u0000\u0000\u0000\u0000\u0000\u0000\u0000\u0000\u0000\u0000\u0000\u0000\u0000\u0000\u0000\u0000\u0000\u0000\u0000\u0000\u0000\u0000\u0000\u0000\u0000\u0000\u0000\u0000\u0000\u0000\u0000\u0000\u0000\u0000\u0000\u0000\u0000\u0000\u0000\u0000\u0000\u0000\u0000\u0000\u0000\u0000\u0000\u0000\u0000\u0000\u0000\u0000\u0000\u0000\u0000\u0000\u0000\u0000\u0000\u0000\u0000",
        "\u0000\u0000\u0000\u0000\u0000\u0000\u0000\u0000\u0000\u0000\u0000\u0000\u0000\u0000\u0000\u0000\u0000\u0000\u0000\u0000\u0000\u0000\u0000\u0000\u0000\u0000\u0000\u0000\u0000\u0000\u0000\u0000\u0000\u0000\u0000\u0000\u0000\u0000\u0000\u0000\u0000\u0000\u0000\u0000\u0000\u0000\u0000\u0000\u0000\u0000\u0000\u0000\u0000\u0000\u0000\u0000\u0000\u0000\u0000\u0000\u0000\u0000\u0000\u0000\u0000\u0000\u0000\u0000\u0000\u0000\u0000\u0000\u0000\u0000\u0000\u0000\u0000\u0000\u0000\u0000\u0000\u0000\u0000\u0000\u0000\u0000\u0000\u0000\u0000\u0000\u0000\u0000\u0000\u0000\u0000\u0000\u0000\u0000\u0000\u0000\u0000\u0000\u0000\u0000\u0000\u0000\u0000\u0000\u0000\u0000\u0000\u0000\u0000\u0000\u0000\u0000\u0000\u0000\u0000\u0000\u0000\u0000\u0000\u0000\u0000\u0000\u0000\u0000\u0000\u0000\u0000\u0000\u0000\u0000\u0000\u0000\u0000\u0000",
        "\u0000\u0000\u0000\u0000\u0000\u0000\u0000\u0000\u0000\u0000\u0000\u0000\u0000\u0000\u0000\u0000\u0000\u0000\u0000\u0000\u0000\u0000\u0000\u0000\u0000\u0000\u0000\u0000\u0000\u0000\u0000\u0000\u0000\u0000\u0000\u0000\u0000\u0000\u0000\u0000\u0000\u0000\u0000\u0000\u0000\u0000\u0000\u0000\u0000\u0000\u0000\u0000\u0000\u0000\u0000\u0000\u0000\u0000\u0000\u0000\u0000\u0000\u0000\u0000\u0000\u0000\u0000\u0000\u0000\u0000\u0000\u0000\u0000\u0000\u0000\u0000\u0000\u0000\u0000\u0000\u0000\u0000\u0000\u0000\u0000\u0000\u0000\u0000\u0000\u0000\u0000\u0000\u0000\u0000\u0000\u0000\u0000\u0000\u0000\u0000\u0000\u0000\u0000\u0000\u0000\u0000\u0000\u0000\u0000\u0000\u0000\u0000\u0000\u0000\u0000\u0000\u0000\u0000\u0000\u0000\u0000\u0000\u0000\u0000\u0000\u0000\u0000\u0000\u0000\u0000\u0000\u0000\u0000\u0000\u0000\u0000\u0000\u0000",
        "\u0000\u0000\u0000\u0000\u0000\u0000\u0000\u0000\u0000\u0000\u0000\u0000\u0000\u0000\u0000\u0000\u0000\u0000\u0000\u0000\u0000\u0000\u0000\u0000\u0000\u0000\u0000\u0000\u0000\u0000\u0000\u0000\u0000\u0000\u0000\u0000\u0000\u0000\u0000\u0000\u0000\u0000\u0000\u0000\u0000\u0000\u0000\u0000\u0000\u0000\u0000\u0000\u0000\u0000\u0000\u0000\u0000\u0000\u0000\u0000\u0000\u0000\u0000\u0000\u0000\u0000\u0000\u0000\u0000\u0000\u0000\u0000\u0000\u0000\u0000\u0000\u0000\u0000\u0000\u0000\u0000\u0000\u0000\u0000\u0000\u0000\u0000\u0000\u0000\u0000\u0000\u0000\u0000\u0000\u0000\u0000\u0000\u0000\u0000\u0000\u0000\u0000\u0000\u0000\u0000\u0000\u0000\u0000\u0000\u0000\u0000\u0000\u0000\u0000\u0000\u0000\u0000\u0000\u0000\u0000\u0000\u0000\u0000\u0000\u0000\u0000\u0000\u0000\u0000\u0000\u0000\u0000\u0000\u0000\u0000\u0000\u0000\u0000",
        "\u0000\u0000\u0000\u0000\u0000\u0000\u0000\u0000\u0000\u0000\u0000\u0000\u0000\u0000\u0000\u0000\u0000\u0000\u0000\u0000\u0000\u0000\u0000\u0000\u0000\u0000\u0000\u0000\u0000\u0000\u0000\u0000\u0000\u0000\u0000\u0000\u0000\u0000\u0000\u0000\u0000\u0000\u0000\u0000\u0000\u0000\u0000\u0000\u0000\u0000\u0000\u0000\u0000\u0000\u0000\u0000\u0000\u0000\u0000\u0000\u0000\u0000\u0000\u0000\u0000\u0000\u0000\u0000\u0000\u0000\u0000\u0000\u0000\u0000\u0000\u0000\u0000\u0000\u0000\u0000\u0000\u0000\u0000\u0000\u0000\u0000\u0000\u0000\u0000\u0000\u0000\u0000\u0000\u0000\u0000\u0000\u0000\u0000\u0000\u0000\u0000\u0000\u0000\u0000\u0000\u0000\u0000\u0000\u0000\u0000\u0000\u0000\u0000\u0000\u0000\u0000\u0000\u0000\u0000\u0000\u0000\u0000\u0000\u0000\u0000\u0000\u0000\u0000\u0000\u0000\u0000\u0000\u0000\u0000\u0000\u0000\u0000\u0000",
        "\u0000\u0000\u0000\u0000\u0000\u0000\u0000\u0000\u0000\u0000\u0000\u0000\u0000\u0000\u0000\u0000\u0000\u0000\u0000\u0000\u0000\u0000\u0000\u0000\u0000\u0000\u0000\u0000\u0000\u0000\u0000\u0000\u0000\u0000\u0000\u0000\u0000\u0000\u0000\u0000\u0000\u0000\u0000\u0000\u0000\u0000\u0000\u0000\u0000\u0000\u0000\u0000\u0000\u0000\u0000\u0000\u0000\u0000\u0000\u0000\u0000\u0000\u0000\u0000\u0000\u0000\u0000\u0000\u0000\u0000\u0000\u0000\u0000\u0000\u0000\u0000\u0000\u0000\u0000\u0000\u0000\u0000\u0000\u0000\u0000\u0000\u0000\u0000\u0000\u0000\u0000\u0000\u0000\u0000\u0000\u0000\u0000\u0000\u0000\u0000\u0000\u0000\u0000\u0000\u0000\u0000\u0000\u0000\u0000\u0000\u0000\u0000\u0000\u0000\u0000\u0000\u0000\u0000\u0000\u0000\u0000\u0000\u0000\u0000\u0000\u0000\u0000\u0000\u0000\u0000\u0000\u0000\u0000\u0000\u0000\u0000\u0000\u0000",
        "\u0000\u0000\u0000\u0000\u0000\u0000\u0000\u0000\u0000\u0000\u0000\u0000\u0000\u0000\u0000\u0000\u0000\u0000\u0000\u0000\u0000\u0000\u0000\u0000\u0000\u0000\u0000\u0000\u0000\u0000\u0000\u0000\u0000\u0000\u0000\u0000\u0000\u0000\u0000\u0000\u0000\u0000\u0000\u0000\u0000\u0000\u0000\u0000\u0000\u0000\u0000\u0000\u0000\u0000\u0000\u0000\u0000\u0000\u0000\u0000\u0000\u0000\u0000\u0000\u0000\u0000\u0000\u0000\u0000\u0000\u0000\u0000\u0000\u0000\u0000\u0000\u0000\u0000\u0000\u0000\u0000\u0000\u0000\u0000\u0000\u0000\u0000\u0000\u0000\u0000\u0000\u0000\u0000\u0000\u0000\u0000\u0000\u0000\u0000\u0000\u0000\u0000\u0000\u0000\u0000\u0000\u0000\u0000\u0000\u0000\u0000\u0000\u0000\u0000\u0000\u0000\u0000\u0000\u0000\u0000\u0000\u0000\u0000\u0000\u0000\u0000\u0000\u0000\u0000\u0000\u0000\u0000\u0000\u0000\u0000\u0000\u0000\u0000",
        "\u0000\u0000\u0000\u0000\u0000\u0000\u0000\u0000\u0000\u0000\u0000\u0000\u0000\u0000\u0000\u0000\u0000\u0000\u0000\u0000\u0000\u0000\u0000\u0000\u0000\u0000\u0000\u0000\u0000\u0000\u0000\u0000\u0000\u0000\u0000\u0000\u0000\u0000\u0000\u0000\u0000\u0000\u0000\u0000\u0000\u0000\u0000\u0000\u0000\u0000\u0000\u0000\u0000\u0000\u0000\u0000\u0000\u0000\u0000\u0000\u0000\u0000\u0000\u0000\u0000\u0000\u0000\u0000\u0000\u0000\u0000\u0000\u0000\u0000\u0000\u0000\u0000\u0000\u0000\u0000\u0000\u0000\u0000\u0000\u0000\u0000\u0000\u0000\u0000\u0000\u0000\u0000\u0000\u0000\u0000\u0000\u0000\u0000\u0000\u0000\u0000\u0000\u0000\u0000\u0000\u0000\u0000\u0000\u0000\u0000\u0000\u0000\u0000\u0000\u0000\u0000\u0000\u0000\u0000\u0000\u0000\u0000\u0000\u0000\u0000\u0000\u0000\u0000\u0000\u0000\u0000\u0000\u0000\u0000\u0000\u0000\u0000\u0000",
        "\u0000\u0000\u0000\u0000\u0000\u0000\u0000\u0000\u0000\u0000\u0000\u0000\u0000\u0000\u0000\u0000\u0000\u0000\u0000\u0000\u0000\u0000\u0000\u0000\u0000\u0000\u0000\u0000\u0000\u0000\u0000\u0000\u0000\u0000\u0000\u0000\u0000\u0000\u0000\u0000\u0000\u0000\u0000\u0000\u0000\u0000\u0000\u0000\u0000\u0000\u0000\u0000\u0000\u0000\u0000\u0000\u0000\u0000\u0000\u0000\u0000\u0000\u0000\u0000\u0000\u0000\u0000\u0000\u0000\u0000\u0000\u0000\u0000\u0000\u0000\u0000\u0000\u0000\u0000\u0000\u0000\u0000\u0000\u0000\u0000\u0000\u0000\u0000\u0000\u0000\u0000\u0000\u0000\u0000\u0000\u0000\u0000\u0000\u0000\u0000\u0000\u0000\u0000\u0000\u0000\u0000\u0000\u0000\u0000\u0000\u0000\u0000\u0000\u0000\u0000\u0000\u0000\u0000\u0000\u0000\u0000\u0000\u0000\u0000\u0000\u0000\u0000\u0000\u0000\u0000\u0000\u0000\u0000\u0000\u0000\u0000\u0000\u0000",
        "\u0000\u0000\u0000\u0000\u0000\u0000\u0000\u0000\u0000\u0000\u0000\u0000\u0000\u0000\u0000\u0000\u0000\u0000\u0000\u0000\u0000\u0000\u0000\u0000\u0000\u0000\u0000\u0000\u0000\u0000\u0000\u0000\u0000\u0000\u0000\u0000\u0000\u0000\u0000\u0000\u0000\u0000\u0000\u0000\u0000\u0000\u0000\u0000\u0000\u0000\u0000\u0000\u0000\u0000\u0000\u0000\u0000\u0000\u0000\u0000\u0000\u0000\u0000\u0000\u0000\u0000\u0000\u0000\u0000\u0000\u0000\u0000\u0000\u0000\u0000\u0000\u0000\u0000\u0000\u0000\u0000\u0000\u0000\u0000\u0000\u0000\u0000\u0000\u0000\u0000\u0000\u0000\u0000\u0000\u0000\u0000\u0000\u0000\u0000\u0000\u0000\u0000\u0000\u0000\u0000\u0000\u0000\u0000\u0000\u0000\u0000\u0000\u0000\u0000\u0000\u0000\u0000\u0000\u0000\u0000\u0000\u0000\u0000\u0000\u0000\u0000\u0000\u0000\u0000\u0000\u0000\u0000\u0000\u0000\u0000\u0000\u0000\u0000",
        "\u0000\u0000\u0000\u0000\u0000\u0000\u0000\u0000\u0000\u0000\u0000\u0000\u0000\u0000\u0000\u0000\u0000\u0000\u0000\u0000\u0000\u0000\u0000\u0000\u0000\u0000\u0000\u0000\u0000\u0000\u0000\u0000\u0000\u0000\u0000\u0000\u0000\u0000\u0000\u0000\u0000\u0000\u0000\u0000\u0000\u0000\u0000\u0000\u0000\u0000\u0000\u0000\u0000\u0000\u0000\u0000\u0000\u0000\u0000\u0000\u0000\u0000\u0000\u0000\u0000\u0000\u0000\u0000\u0000\u0000\u0000\u0000\u0000\u0000\u0000\u0000\u0000\u0000\u0000\u0000\u0000\u0000\u0000\u0000\u0000\u0000\u0000\u0000\u0000\u0000\u0000\u0000\u0000\u0000\u0000\u0000\u0000\u0000\u0000\u0000\u0000\u0000\u0000\u0000\u0000\u0000\u0000\u0000\u0000\u0000\u0000\u0000\u0000\u0000\u0000\u0000\u0000\u0000\u0000\u0000\u0000\u0000\u0000\u0000\u0000\u0000\u0000\u0000\u0000\u0000\u0000\u0000\u0000\u0000\u0000\u0000\u0000\u0000",
        "\u0000\u0000\u0000\u0000\u0000\u0000\u0000\u0000\u0000\u0000\u0000\u0000\u0000\u0000\u0000\u0000\u0000\u0000\u0000\u0000\u0000\u0000\u0000\u0000\u0000\u0000\u0000\u0000\u0000\u0000\u0000\u0000\u0000\u0000\u0000\u0000\u0000\u0000\u0000\u0000\u0000\u0000\u0000\u0000\u0000\u0000\u0000\u0000\u0000\u0000\u0000\u0000\u0000\u0000\u0000\u0000\u0000\u0000\u0000\u0000\u0000\u0000\u0000\u0000\u0000\u0000\u0000\u0000\u0000\u0000\u0000\u0000\u0000\u0000\u0000\u0000\u0000\u0000\u0000\u0000\u0000\u0000\u0000\u0000\u0000\u0000\u0000\u0000\u0000\u0000\u0000\u0000\u0000\u0000\u0000\u0000\u0000\u0000\u0000\u0000\u0000\u0000\u0000\u0000\u0000\u0000\u0000\u0000\u0000\u0000\u0000\u0000\u0000\u0000\u0000\u0000\u0000\u0000\u0000\u0000\u0000\u0000\u0000\u0000\u0000\u0000\u0000\u0000\u0000\u0000\u0000\u0000\u0000\u0000\u0000\u0000\u0000\u0000",
