{
  "AcquisitionMatrixPE": 70,
  "AcquisitionNumber": 1,
  "AcquisitionTime": "15:23:17.522500",
  "BandwidthPerPixelPhaseEncode": 51.948,
  "BaseResolution": 70,
  "BodyPartExamined": "HEAD",
  "CoilCombinationMethod": "Sum of Squares",
  "ConsistencyInfo": "N4_VE11C_LATEST_20160120",
  "ConversionSoftware": "dcm2niix",
  "ConversionSoftwareVersion": "v1.0.20220720",
  "DerivedVendorReportedEchoSpacing": 0.000550001,
  "DeviceSerialNumber": "66061",
  "DwellTime": 3.3e-06,
  "EchoTime": 0.022,
  "EchoTrainLength": 35,
  "EffectiveEchoSpacing": 0.000275,
  "FlipAngle": 90,
  "HeudiconvVersion": "1.1.1",
  "ImageOrientationPatientDICOM": [0.999998, 0.00144591, 0.00153134, -0.00122171, 0.990508, -0.137447],
  "ImageOrientationText": "Tra>Cor(-7.9)>Sag(0.1)",
  "ImageType": [
    "ORIGINAL",
    "PRIMARY",
    "M",
    "ND",
    "NORM",
    "MOSAIC"
],
  "ImagingFrequency": 123.254,
  "InPlanePhaseEncodingDirectionDICOM": "COL",
  "InstitutionAddress": "Street StreetNo,City/1c4204/,District,KR,ZIP",
  "InstitutionName": "SKKU",
  "InstitutionalDepartmentName": "Department",
  "MRAcquisitionType": "2D",
  "MagneticFieldStrength": 3,
  "Manufacturer": "Siemens",
  "ManufacturersModelName": "Prisma",
  "MatrixCoilMode": "GRAPPA",
  "Modality": "MR",
  "NonlinearGradientCorrection": false,
  "ParallelReductionFactorInPlane": 2,
  "PartialFourier": 1,
  "PatientPosition": "HFS",
  "PercentPhaseFOV": 100,
  "PercentSampling": 100,
  "PhaseEncodingDirection": "j-",
  "PhaseEncodingSteps": 70,
  "PhaseResolution": 1,
  "PixelBandwidth": 2165,
  "ProcedureStepDescription": "Head^PI:Others",
  "ProtocolName": "BOLD_ep2d_3x3x3_response2",
  "PulseSequenceDetails": "%SiemensSeq%\\ep2d_pace",
  "ReceiveCoilActiveElements": "HC1-7",
  "ReceiveCoilName": "HeadNeck_64",
  "ReconMatrixPE": 70,
  "RefLinesPE": 24,
  "RepetitionTime": 2,
  "SAR": 0.155691,
  "ScanOptions": "FS",
  "ScanningSequence": "EP",
  "SequenceName": "*epfid2d1_70",
  "SequenceVariant": "SK",
  "SeriesDescription": "BOLD_ep2d_3x3x3_response2",
  "SeriesNumber": 9,
  "ShimSetting": [5042, 3713, 4436, 429, -55, -32, 7, 53],
  "SliceThickness": 3,
  "SliceTiming": [0.99, 0, 1.0375, 0.0475, 1.085, 0.095, 1.1325, 0.1425, 1.18, 0.19, 1.2275, 0.2375, 1.275, 0.285, 1.32, 0.33, 1.3675, 0.3775, 1.415, 0.425, 1.4625, 0.4725, 1.51, 0.52, 1.5575, 0.5675, 1.605, 0.615, 1.65, 0.66, 1.6975, 0.7075, 1.745, 0.755, 1.7925, 0.8025, 1.84, 0.85, 1.8875, 0.8975, 1.935, 0.945],
  "SoftwareVersions": "syngo MR E11",
  "SpacingBetweenSlices": 3,
  "StationName": "AWP66061",
  "TaskName": "response",
  "TotalReadoutTime": 0.018975,
  "TxRefAmp": 250.73,
  "dcmmeta_affine": [
    [-2.999993324279785, -0.0036651173140853643, 0.005146633367985487, 108.17073822021484],
    [-0.004337715916335583, 2.971525192260742, -0.4123338460922241, -87.60228729248047],
    [0.0045940326526761055, 0.412340372800827, 2.9715240001678467, -60.56023025512695],
    [0.0, 0.0, 0.0, 1.0]
],
  "dcmmeta_reorient_transform": [
    [0.0, -1.0, 0.0, 69.0],
    [1.0, 0.0, 0.0, 0.0],
    [0.0, 0.0, -1.0, 41.0],
    [0.0, 0.0, 0.0, 1.0]
],
  "dcmmeta_shape": [70, 70, 42, 341],
  "dcmmeta_slice_dim": 2,
  "dcmmeta_version": 0.6,
  "global": {
    "const": {
      "AcquisitionMatrix": [70, 0, 0, 70],
      "AngioFlag": "N",
      "BitsAllocated": 16,
      "BitsStored": 12,
      "BodyPartExamined": "HEAD",
      "Columns": 490,
      "EchoNumbers": 1,
      "EchoTime": 22.0,
      "EchoTrainLength": 35,
      "FlipAngle": 90.0,
      "HighBit": 11,
      "ImageOrientationPatient": [0.99999778216879, 0.00144590537613, 0.00153134422684, -0.0012217057722, 0.99050839783367, -0.1374467942732],
      "ImagePositionPatient": [-737.35778400087, -725.45847649599, 175.35046961468],
      "ImageType": [
        "ORIGINAL",
        "PRIMARY",
        "M",
        "ND",
        "NORM",
        "MOSAIC"
],
      "ImagedNucleus": "1H",
      "ImagingFrequency": 123.254012,
      "InPlanePhaseEncodingDirection": "COL",
      "MRAcquisitionType": "2D",
      "MagneticFieldStrength": 3.0,
      "Manufacturer": "SIEMENS",
      "ManufacturerModelName": "Prisma",
      "Modality": "MR",
      "NumberOfAverages": 1.0,
      "NumberOfPhaseEncodingSteps": 70,
      "PercentPhaseFieldOfView": 100.0,
      "PercentSampling": 100.0,
      "PerformedProcedureStepStartTime": "143012.413000",
      "PhotometricInterpretation": "MONOCHROME2",
      "PixelBandwidth": 2165.0,
      "PixelRepresentation": 0,
      "PixelSpacing": [3.0, 3.0],
      "ProtocolName": "BOLD_ep2d_3x3x3_response2",
      "RepetitionTime": 2000.0,
      "Rows": 490,
      "SAR": 0.15569113629508,
      "SamplesPerPixel": 1,
      "ScanOptions": "FS",
      "ScanningSequence": "EP",
      "SequenceName": "*epfid2d1_70",
      "SequenceVariant": "SK",
      "SeriesDescription": "BOLD_ep2d_3x3x3_response2",
      "SeriesNumber": 9,
      "SeriesTime": "152415.973000",
      "SliceLocation": 75.240643658495,
      "SliceThickness": 3.0,
      "SmallestImagePixelValue": 0,
      "SoftwareVersions": "syngo MR E11",
      "SpacingBetweenSlices": 3.0000000307792,
      "SpecificCharacterSet": "ISO_IR 100",
      "StudyID": "1",
      "StudyTime": "143012.358000",
      "TransmitCoilName": "Body",
      "VariableFlipAngleFlag": "N",
      "WindowCenterWidthExplanation": "Algo1",
      "dBdt": 0.0},
    "slices": {}
  },
  "time": {
    "samples": {
      "AcquisitionNumber": [1, 2, 3, 4, 5, 6, 7, 8, 9, 10, 11, 12, 13, 14, 15, 16, 17, 18, 19, 20, 21, 22, 23, 24, 25, 26, 27, 28, 29, 30, 31, 32, 33, 34, 35, 36, 37, 38, 39, 40, 41, 42, 43, 44, 45, 46, 47, 48, 49, 50, 51, 52, 53, 54, 55, 56, 57, 58, 59, 60, 61, 62, 63, 64, 65, 66, 67, 68, 69, 70, 71, 72, 73, 74, 75, 76, 77, 78, 79, 80, 81, 82, 83, 84, 85, 86, 87, 88, 89, 90, 91, 92, 93, 94, 95, 96, 97, 98, 99, 100, 101, 102, 103, 104, 105, 106, 107, 108, 109, 110, 111, 112, 113, 114, 115, 116, 117, 118, 119, 120, 121, 122, 123, 124, 125, 126, 127, 128, 129, 130, 131, 132, 133, 134, 135, 136, 137, 138, 139, 140, 141, 142, 143, 144, 145, 146, 147, 148, 149, 150, 151, 152, 153, 154, 155, 156, 157, 158, 159, 160, 161, 162, 163, 164, 165, 166, 167, 168, 169, 170, 171, 172, 173, 174, 175, 176, 177, 178, 179, 180, 181, 182, 183, 184, 185, 186, 187, 188, 189, 190, 191, 192, 193, 194, 195, 196, 197, 198, 199, 200, 201, 202, 203, 204, 205, 206, 207, 208, 209, 210, 211, 212, 213, 214, 215, 216, 217, 218, 219, 220, 221, 222, 223, 224, 225, 226, 227, 228, 229, 230, 231, 232, 233, 234, 235, 236, 237, 238, 239, 240, 241, 242, 243, 244, 245, 246, 247, 248, 249, 250, 251, 252, 253, 254, 255, 256, 257, 258, 259, 260, 261, 262, 263, 264, 265, 266, 267, 268, 269, 270, 271, 272, 273, 274, 275, 276, 277, 278, 279, 280, 281, 282, 283, 284, 285, 286, 287, 288, 289, 290, 291, 292, 293, 294, 295, 296, 297, 298, 299, 300, 301, 302, 303, 304, 305, 306, 307, 308, 309, 310, 311, 312, 313, 314, 315, 316, 317, 318, 319, 320, 321, 322, 323, 324, 325, 326, 327, 328, 329, 330, 331, 332, 333, 334, 335, 336, 337, 338, 339, 340, 341],
      "AcquisitionTime": ["152317.522500", "152319.522500", "152321.522500", "152323.522500", "152325.522500", "152327.522500", "152329.522500", "152331.522500", "152333.522500", "152335.522500", "152337.522500", "152339.522500", "152341.522500", "152343.522500", "152345.522500", "152347.522500", "152349.522500", "152351.522500", "152353.522500", "152355.522500", "152357.522500", "152359.522500", "152401.522500", "152403.522500", "152405.522500", "152407.522500", "152409.522500", "152411.522500", "152413.522500", "152415.522500", "152417.522500", "152419.522500", "152421.522500", "152423.522500", "152425.522500", "152427.522500", "152429.522500", "152431.522500", "152433.522500", "152435.522500", "152437.522500", "152439.522500", "152441.522500", "152443.522500", "152445.522500", "152447.522500", "152449.522500", "152451.522500", "152453.522500", "152455.522500", "152457.522500", "152459.522500", "152501.522500", "152503.522500", "152505.522500", "152507.522500", "152509.522500", "152511.522500", "152513.522500", "152515.522500", "152517.522500", "152519.522500", "152521.522500", "152523.522500", "152525.522500", "152527.522500", "152529.522500", "152531.522500", "152533.522500", "152535.522500", "152537.522500", "152539.522500", "152541.522500", "152543.522500", "152545.522500", "152547.522500", "152549.522500", "152551.522500", "152553.522500", "152555.522500", "152557.522500", "152559.522500", "152601.522500", "152603.522500", "152605.522500", "152607.522500", "152609.522500", "152611.522500", "152613.522500", "152615.522500", "152617.522500", "152619.522500", "152621.522500", "152623.522500", "152625.522500", "152627.522500", "152629.522500", "152631.522500", "152633.522500", "152635.522500", "152637.522500", "152639.522500", "152641.522500", "152643.522500", "152645.522500", "152647.522500", "152649.522500", "152651.522500", "152653.522500", "152655.522500", "152657.522500", "152659.522500", "152701.522500", "152703.522500", "152705.522500", "152707.522500", "152709.522500", "152711.522500", "152713.522500", "152715.522500", "152717.522500", "152719.522500", "152721.522500", "152723.522500", "152725.522500", "152727.522500", "152729.522500", "152731.522500", "152733.522500", "152735.522500", "152737.522500", "152739.522500", "152741.522500", "152743.522500", "152745.522500", "152747.522500", "152749.522500", "152751.522500", "152753.522500", "152755.522500", "152757.522500", "152759.522500", "152801.522500", "152803.522500", "152805.522500", "152807.522500", "152809.522500", "152811.522500", "152813.522500", "152815.522500", "152817.522500", "152819.522500", "152821.522500", "152823.522500", "152825.522500", "152827.522500", "152829.522500", "152831.522500", "152833.522500", "152835.522500", "152837.522500", "152839.522500", "152841.522500", "152843.522500", "152845.522500", "152847.522500", "152849.522500", "152851.522500", "152853.522500", "152855.522500", "152857.522500", "152859.522500", "152901.522500", "152903.522500", "152905.522500", "152907.522500", "152909.522500", "152911.522500", "152913.522500", "152915.522500", "152917.522500", "152919.522500", "152921.522500", "152923.522500", "152925.522500", "152927.522500", "152929.522500", "152931.522500", "152933.522500", "152935.522500", "152937.522500", "152939.522500", "152941.522500", "152943.522500", "152945.522500", "152947.522500", "152949.522500", "152951.522500", "152953.522500", "152955.522500", "152957.522500", "152959.522500", "153001.522500", "153003.522500", "153005.522500", "153007.522500", "153009.522500", "153011.522500", "153013.522500", "153015.522500", "153017.522500", "153019.522500", "153021.522500", "153023.522500", "153025.522500", "153027.522500", "153029.522500", "153031.522500", "153033.522500", "153035.522500", "153037.522500", "153039.522500", "153041.522500", "153043.522500", "153045.522500", "153047.522500", "153049.522500", "153051.522500", "153053.522500", "153055.522500", "153057.522500", "153059.522500", "153101.522500", "153103.522500", "153105.522500", "153107.522500", "153109.522500", "153111.522500", "153113.522500", "153115.522500", "153117.522500", "153119.522500", "153121.522500", "153123.522500", "153125.522500", "153127.522500", "153129.522500", "153131.522500", "153133.522500", "153135.522500", "153137.522500", "153139.522500", "153141.522500", "153143.522500", "153145.522500", "153147.522500", "153149.522500", "153151.522500", "153153.522500", "153155.522500", "153157.522500", "153159.522500", "153201.522500", "153203.522500", "153205.522500", "153207.522500", "153209.522500", "153211.522500", "153213.522500", "153215.522500", "153217.522500", "153219.522500", "153221.522500", "153223.522500", "153225.522500", "153227.522500", "153229.522500", "153231.522500", "153233.522500", "153235.522500", "153237.522500", "153239.522500", "153241.522500", "153243.522500", "153245.522500", "153247.522500", "153249.522500", "153251.522500", "153253.522500", "153255.522500", "153257.522500", "153259.522500", "153301.522500", "153303.522500", "153305.522500", "153307.522500", "153309.522500", "153311.522500", "153313.522500", "153315.522500", "153317.522500", "153319.522500", "153321.522500", "153323.522500", "153325.522500", "153327.522500", "153329.522500", "153331.522500", "153333.522500", "153335.522500", "153337.522500", "153339.522500", "153341.522500", "153343.522500", "153345.522500", "153347.522500", "153349.522500", "153351.522500", "153353.522500", "153355.522500", "153357.522500", "153359.522500", "153401.522500", "153403.522500", "153405.522500", "153407.522500", "153409.522500", "153411.522500", "153413.522500", "153415.522500", "153417.522500", "153419.522500", "153421.522500", "153423.522500", "153425.522500", "153427.522500", "153429.522500", "153431.522500", "153433.522500", "153435.522500", "153437.522500"],
      "ContentTime": ["152415.976000", "152415.980000", "152415.988000", "152415.991000", "152415.994000", "152415.996000", "152416.000000", "152416.002000", "152416.005000", "152416.008000", "152416.010000", "152416.013000", "152416.016000", "152416.018000", "152416.021000", "152416.036000", "152416.039000", "152416.041000", "152416.044000", "152416.047000", "152416.049000", "152416.052000", "152416.055000", "152416.072000", "152416.074000", "152416.077000", "152416.080000", "152416.082000", "152416.085000", "152455.972000", "152455.974000", "152455.977000", "152455.980000", "152455.982000", "152455.985000", "152455.989000", "152455.992000", "152455.994000", "152455.997000", "152456.001000", "152456.010000", "152456.012000", "152456.015000", "152456.018000", "152456.020000", "152456.023000", "152456.026000", "152456.028000", "152456.031000", "152535.972000", "152535.974000", "152535.977000", "152535.980000", "152535.982000", "152535.985000", "152535.988000", "152535.990000", "152535.993000", "152535.996000", "152535.998000", "152536.002000", "152536.005000", "152536.007000", "152536.019000", "152536.021000", "152536.024000", "152536.027000", "152536.029000", "152536.032000", "152555.972000", "152555.975000", "152555.977000", "152555.980000", "152555.982000", "152555.985000", "152555.988000", "152555.990000", "152555.993000", "152555.996000", "152635.972000", "152635.974000", "152635.977000", "152635.980000", "152635.982000", "152635.985000", "152635.988000", "152635.991000", "152635.993000", "152635.996000", "152635.998000", "152636.002000", "152636.005000", "152636.007000", "152636.010000", "152636.013000", "152636.015000", "152636.018000", "152636.021000", "152636.023000", "152715.972000", "152715.974000", "152715.977000", "152715.980000", "152715.983000", "152715.985000", "152716.000000", "152716.003000", "152716.006000", "152716.008000", "152716.011000", "152716.013000", "152716.016000", "152716.019000", "152716.021000", "152716.024000", "152716.027000", "152716.029000", "152716.032000", "152716.035000", "152755.972000", "152755.974000", "152755.977000", "152755.980000", "152755.982000", "152755.985000", "152755.988000", "152755.990000", "152755.993000", "152755.996000", "152756.000000", "152756.002000", "152756.005000", "152756.008000", "152756.010000", "152756.013000", "152756.016000", "152756.018000", "152756.021000", "152756.024000", "152835.972000", "152835.974000", "152835.977000", "152835.980000", "152835.983000", "152835.985000", "152835.988000", "152835.991000", "152835.993000", "152835.996000", "152835.998000", "152836.002000", "152836.005000", "152836.007000", "152836.010000", "152836.013000", "152836.016000", "152836.018000", "152836.021000", "152836.024000", "152915.972000", "152915.974000", "152915.977000", "152915.980000", "152915.983000", "152915.985000", "152915.988000", "152915.991000", "152915.993000", "152915.996000", "152916.000000", "152916.002000", "152916.005000", "152916.008000", "152916.010000", "152916.013000", "152916.016000", "152916.019000", "152916.021000", "152916.024000", "152955.973000", "152955.975000", "152955.978000", "152955.981000", "152955.984000", "152955.986000", "152955.989000", "152955.992000", "152955.994000", "152955.997000", "152956.001000", "152956.003000", "152956.006000", "152956.009000", "152956.011000", "152956.014000", "152956.017000", "152956.019000", "152956.022000", "152956.025000", "153035.972000", "153035.975000", "153035.977000", "153035.980000", "153035.983000", "153036.000000", "153036.003000", "153036.006000", "153036.009000", "153036.011000", "153036.014000", "153036.017000", "153036.019000", "153036.022000", "153036.025000", "153036.027000", "153036.030000", "153036.033000", "153036.035000", "153036.038000", "153115.972000", "153115.975000", "153115.977000", "153115.980000", "153115.983000", "153115.985000", "153115.988000", "153115.991000", "153115.993000", "153115.996000", "153116.000000", "153116.002000", "153116.005000", "153116.008000", "153116.010000", "153116.024000", "153116.027000", "153116.029000", "153116.032000", "153116.035000", "153155.972000", "153155.975000", "153155.977000", "153155.980000", "153155.983000", "153155.985000", "153155.988000", "153155.991000", "153155.993000", "153155.996000", "153156.000000", "153156.002000", "153156.005000", "153156.008000", "153156.010000", "153156.013000", "153156.016000", "153156.019000", "153156.021000", "153156.024000", "153235.972000", "153235.975000", "153235.977000", "153235.980000", "153235.983000", "153235.985000", "153235.988000", "153235.991000", "153235.993000", "153235.996000", "153236.000000", "153236.002000", "153236.005000", "153236.008000", "153236.011000", "153236.013000", "153236.016000", "153236.019000", "153236.021000", "153236.024000", "153315.972000", "153315.975000", "153315.978000", "153315.980000", "153315.983000", "153315.986000", "153315.988000", "153315.991000", "153315.994000", "153315.996000", "153316.000000", "153316.003000", "153316.006000", "153316.008000", "153316.011000", "153316.014000", "153316.016000", "153316.019000", "153316.022000", "153316.024000", "153355.972000", "153355.975000", "153355.977000", "153355.980000", "153355.983000", "153355.985000", "153355.988000", "153355.991000", "153355.993000", "153355.996000", "153356.000000", "153356.002000", "153356.005000", "153356.008000", "153356.010000", "153356.013000", "153356.016000", "153356.019000", "153356.021000", "153356.024000", "153435.973000", "153435.976000", "153435.978000", "153435.981000", "153435.984000", "153435.986000", "153435.989000", "153435.992000", "153435.994000", "153435.997000", "153436.001000", "153436.003000", "153436.006000", "153436.009000", "153436.011000", "153436.014000", "153436.017000", "153436.020000", "153436.022000", "153436.025000", "153439.395000", "153439.398000"],
      "DataSetTrailingPadding": [
        "\u0000\u0000\u0000\u0000\u0000\u0000\u0000\u0000\u0000\u0000\u0000\u0000\u0000\u0000\u0000\u0000\u0000\u0000\u0000\u0000\u0000\u0000\u0000\u0000\u0000\u0000\u0000\u0000\u0000\u0000\u0000\u0000\u0000\u0000\u0000\u0000\u0000\u0000\u0000\u0000\u0000\u0000\u0000\u0000\u0000\u0000\u0000\u0000\u0000\u0000\u0000\u0000\u0000\u0000\u0000\u0000\u0000\u0000\u0000\u0000\u0000\u0000\u0000\u0000\u0000\u0000",
        "\u0000\u0000\u0000\u0000\u0000\u0000\u0000\u0000\u0000\u0000\u0000\u0000\u0000\u0000\u0000\u0000\u0000\u0000\u0000\u0000\u0000\u0000\u0000\u0000\u0000\u0000\u0000\u0000\u0000\u0000\u0000\u0000\u0000\u0000\u0000\u0000\u0000\u0000\u0000\u0000\u0000\u0000\u0000\u0000\u0000\u0000\u0000\u0000\u0000\u0000\u0000\u0000\u0000\u0000\u0000\u0000\u0000\u0000\u0000\u0000\u0000\u0000\u0000\u0000\u0000\u0000\u0000\u0000",
        "\u0000\u0000\u0000\u0000\u0000\u0000\u0000\u0000\u0000\u0000\u0000\u0000\u0000\u0000\u0000\u0000\u0000\u0000\u0000\u0000\u0000\u0000\u0000\u0000\u0000\u0000\u0000\u0000\u0000\u0000\u0000\u0000\u0000\u0000\u0000\u0000\u0000\u0000\u0000\u0000\u0000\u0000\u0000\u0000\u0000\u0000\u0000\u0000\u0000\u0000\u0000\u0000\u0000\u0000\u0000\u0000\u0000\u0000\u0000\u0000\u0000\u0000\u0000\u0000\u0000\u0000\u0000\u0000",
        "\u0000\u0000\u0000\u0000\u0000\u0000\u0000\u0000\u0000\u0000\u0000\u0000\u0000\u0000\u0000\u0000\u0000\u0000\u0000\u0000\u0000\u0000\u0000\u0000\u0000\u0000\u0000\u0000\u0000\u0000\u0000\u0000\u0000\u0000\u0000\u0000\u0000\u0000\u0000\u0000\u0000\u0000\u0000\u0000\u0000\u0000\u0000\u0000\u0000\u0000\u0000\u0000\u0000\u0000\u0000\u0000\u0000\u0000\u0000\u0000\u0000\u0000\u0000\u0000\u0000\u0000\u0000\u0000",
        "\u0000\u0000\u0000\u0000\u0000\u0000\u0000\u0000\u0000\u0000\u0000\u0000\u0000\u0000\u0000\u0000\u0000\u0000\u0000\u0000\u0000\u0000\u0000\u0000\u0000\u0000\u0000\u0000\u0000\u0000\u0000\u0000\u0000\u0000\u0000\u0000\u0000\u0000\u0000\u0000\u0000\u0000\u0000\u0000\u0000\u0000\u0000\u0000\u0000\u0000\u0000\u0000\u0000\u0000\u0000\u0000\u0000\u0000\u0000\u0000\u0000\u0000\u0000\u0000\u0000\u0000\u0000\u0000",
        "\u0000\u0000\u0000\u0000\u0000\u0000\u0000\u0000\u0000\u0000\u0000\u0000\u0000\u0000\u0000\u0000\u0000\u0000\u0000\u0000\u0000\u0000\u0000\u0000\u0000\u0000\u0000\u0000\u0000\u0000\u0000\u0000\u0000\u0000\u0000\u0000\u0000\u0000\u0000\u0000\u0000\u0000\u0000\u0000\u0000\u0000\u0000\u0000\u0000\u0000\u0000\u0000\u0000\u0000\u0000\u0000\u0000\u0000\u0000\u0000\u0000\u0000\u0000\u0000\u0000\u0000\u0000\u0000",
        "\u0000\u0000\u0000\u0000\u0000\u0000\u0000\u0000\u0000\u0000\u0000\u0000\u0000\u0000\u0000\u0000\u0000\u0000\u0000\u0000\u0000\u0000\u0000\u0000\u0000\u0000\u0000\u0000\u0000\u0000\u0000\u0000\u0000\u0000\u0000\u0000\u0000\u0000\u0000\u0000\u0000\u0000\u0000\u0000\u0000\u0000\u0000\u0000\u0000\u0000\u0000\u0000\u0000\u0000\u0000\u0000\u0000\u0000\u0000\u0000\u0000\u0000\u0000\u0000\u0000\u0000\u0000\u0000",
        "\u0000\u0000\u0000\u0000\u0000\u0000\u0000\u0000\u0000\u0000\u0000\u0000\u0000\u0000\u0000\u0000\u0000\u0000\u0000\u0000\u0000\u0000\u0000\u0000\u0000\u0000\u0000\u0000\u0000\u0000\u0000\u0000\u0000\u0000\u0000\u0000\u0000\u0000\u0000\u0000\u0000\u0000\u0000\u0000\u0000\u0000\u0000\u0000\u0000\u0000\u0000\u0000\u0000\u0000\u0000\u0000\u0000\u0000\u0000\u0000\u0000\u0000\u0000\u0000\u0000\u0000\u0000\u0000",
        "\u0000\u0000\u0000\u0000\u0000\u0000\u0000\u0000\u0000\u0000\u0000\u0000\u0000\u0000\u0000\u0000\u0000\u0000\u0000\u0000\u0000\u0000\u0000\u0000\u0000\u0000\u0000\u0000\u0000\u0000\u0000\u0000\u0000\u0000\u0000\u0000\u0000\u0000\u0000\u0000\u0000\u0000\u0000\u0000\u0000\u0000\u0000\u0000\u0000\u0000\u0000\u0000\u0000\u0000\u0000\u0000\u0000\u0000\u0000\u0000\u0000\u0000\u0000\u0000\u0000\u0000\u0000\u0000",
        "\u0000\u0000\u0000\u0000\u0000\u0000\u0000\u0000\u0000\u0000\u0000\u0000\u0000\u0000\u0000\u0000\u0000\u0000\u0000\u0000\u0000\u0000\u0000\u0000\u0000\u0000\u0000\u0000\u0000\u0000\u0000\u0000\u0000\u0000\u0000\u0000\u0000\u0000\u0000\u0000\u0000\u0000\u0000\u0000\u0000\u0000\u0000\u0000\u0000\u0000\u0000\u0000\u0000\u0000\u0000\u0000\u0000\u0000\u0000\u0000\u0000\u0000\u0000\u0000\u0000\u0000\u0000\u0000",
        "\u0000\u0000\u0000\u0000\u0000\u0000\u0000\u0000\u0000\u0000\u0000\u0000\u0000\u0000\u0000\u0000\u0000\u0000\u0000\u0000\u0000\u0000\u0000\u0000\u0000\u0000\u0000\u0000\u0000\u0000\u0000\u0000\u0000\u0000\u0000\u0000\u0000\u0000\u0000\u0000\u0000\u0000\u0000\u0000\u0000\u0000\u0000\u0000\u0000\u0000\u0000\u0000\u0000\u0000\u0000\u0000\u0000\u0000\u0000\u0000\u0000\u0000\u0000\u0000\u0000\u0000\u0000\u0000",
        "\u0000\u0000\u0000\u0000\u0000\u0000\u0000\u0000\u0000\u0000\u0000\u0000\u0000\u0000\u0000\u0000\u0000\u0000\u0000\u0000\u0000\u0000\u0000\u0000\u0000\u0000\u0000\u0000\u0000\u0000\u0000\u0000\u0000\u0000\u0000\u0000\u0000\u0000\u0000\u0000\u0000\u0000\u0000\u0000\u0000\u0000\u0000\u0000\u0000\u0000\u0000\u0000\u0000\u0000\u0000\u0000\u0000\u0000\u0000\u0000\u0000\u0000\u0000\u0000\u0000\u0000\u0000\u0000",
        "\u0000\u0000\u0000\u0000\u0000\u0000\u0000\u0000\u0000\u0000\u0000\u0000\u0000\u0000\u0000\u0000\u0000\u0000\u0000\u0000\u0000\u0000\u0000\u0000\u0000\u0000\u0000\u0000\u0000\u0000\u0000\u0000\u0000\u0000\u0000\u0000\u0000\u0000\u0000\u0000\u0000\u0000\u0000\u0000\u0000\u0000\u0000\u0000\u0000\u0000\u0000\u0000\u0000\u0000\u0000\u0000\u0000\u0000\u0000\u0000\u0000\u0000\u0000\u0000\u0000\u0000\u0000\u0000",
        "\u0000\u0000\u0000\u0000\u0000\u0000\u0000\u0000\u0000\u0000\u0000\u0000\u0000\u0000\u0000\u0000\u0000\u0000\u0000\u0000\u0000\u0000\u0000\u0000\u0000\u0000\u0000\u0000\u0000\u0000\u0000\u0000\u0000\u0000\u0000\u0000\u0000\u0000\u0000\u0000\u0000\u0000\u0000\u0000\u0000\u0000\u0000\u0000\u0000\u0000\u0000\u0000\u0000\u0000\u0000\u0000\u0000\u0000\u0000\u0000\u0000\u0000\u0000\u0000\u0000\u0000\u0000\u0000",
        "\u0000\u0000\u0000\u0000\u0000\u0000\u0000\u0000\u0000\u0000\u0000\u0000\u0000\u0000\u0000\u0000\u0000\u0000\u0000\u0000\u0000\u0000\u0000\u0000\u0000\u0000\u0000\u0000\u0000\u0000\u0000\u0000\u0000\u0000\u0000\u0000\u0000\u0000\u0000\u0000\u0000\u0000\u0000\u0000\u0000\u0000\u0000\u0000\u0000\u0000\u0000\u0000\u0000\u0000\u0000\u0000\u0000\u0000\u0000\u0000\u0000\u0000\u0000\u0000\u0000\u0000\u0000\u0000",
        "\u0000\u0000\u0000\u0000\u0000\u0000\u0000\u0000\u0000\u0000\u0000\u0000\u0000\u0000\u0000\u0000\u0000\u0000\u0000\u0000\u0000\u0000\u0000\u0000\u0000\u0000\u0000\u0000\u0000\u0000\u0000\u0000\u0000\u0000\u0000\u0000\u0000\u0000\u0000\u0000\u0000\u0000\u0000\u0000\u0000\u0000\u0000\u0000\u0000\u0000\u0000\u0000\u0000\u0000\u0000\u0000\u0000\u0000\u0000\u0000\u0000\u0000\u0000\u0000\u0000\u0000\u0000\u0000",
        "\u0000\u0000\u0000\u0000\u0000\u0000\u0000\u0000\u0000\u0000\u0000\u0000\u0000\u0000\u0000\u0000\u0000\u0000\u0000\u0000\u0000\u0000\u0000\u0000\u0000\u0000\u0000\u0000\u0000\u0000\u0000\u0000\u0000\u0000\u0000\u0000\u0000\u0000\u0000\u0000\u0000\u0000\u0000\u0000\u0000\u0000\u0000\u0000\u0000\u0000\u0000\u0000\u0000\u0000\u0000\u0000\u0000\u0000\u0000\u0000\u0000\u0000\u0000\u0000\u0000\u0000\u0000\u0000",
        "\u0000\u0000\u0000\u0000\u0000\u0000\u0000\u0000\u0000\u0000\u0000\u0000\u0000\u0000\u0000\u0000\u0000\u0000\u0000\u0000\u0000\u0000\u0000\u0000\u0000\u0000\u0000\u0000\u0000\u0000\u0000\u0000\u0000\u0000\u0000\u0000\u0000\u0000\u0000\u0000\u0000\u0000\u0000\u0000\u0000\u0000\u0000\u0000\u0000\u0000\u0000\u0000\u0000\u0000\u0000\u0000\u0000\u0000\u0000\u0000\u0000\u0000\u0000\u0000\u0000\u0000\u0000\u0000",
        "\u0000\u0000\u0000\u0000\u0000\u0000\u0000\u0000\u0000\u0000\u0000\u0000\u0000\u0000\u0000\u0000\u0000\u0000\u0000\u0000\u0000\u0000\u0000\u0000\u0000\u0000\u0000\u0000\u0000\u0000\u0000\u0000\u0000\u0000\u0000\u0000\u0000\u0000\u0000\u0000\u0000\u0000\u0000\u0000\u0000\u0000\u0000\u0000\u0000\u0000\u0000\u0000\u0000\u0000\u0000\u0000\u0000\u0000\u0000\u0000\u0000\u0000\u0000\u0000\u0000\u0000\u0000\u0000",
        "\u0000\u0000\u0000\u0000\u0000\u0000\u0000\u0000\u0000\u0000\u0000\u0000\u0000\u0000\u0000\u0000\u0000\u0000\u0000\u0000\u0000\u0000\u0000\u0000\u0000\u0000\u0000\u0000\u0000\u0000\u0000\u0000\u0000\u0000\u0000\u0000\u0000\u0000\u0000\u0000\u0000\u0000\u0000\u0000\u0000\u0000\u0000\u0000\u0000\u0000\u0000\u0000\u0000\u0000\u0000\u0000\u0000\u0000\u0000\u0000\u0000\u0000\u0000\u0000\u0000\u0000\u0000\u0000",
        "\u0000\u0000\u0000\u0000\u0000\u0000\u0000\u0000\u0000\u0000\u0000\u0000\u0000\u0000\u0000\u0000\u0000\u0000\u0000\u0000\u0000\u0000\u0000\u0000\u0000\u0000\u0000\u0000\u0000\u0000\u0000\u0000\u0000\u0000\u0000\u0000\u0000\u0000\u0000\u0000\u0000\u0000\u0000\u0000\u0000\u0000\u0000\u0000\u0000\u0000\u0000\u0000\u0000\u0000\u0000\u0000\u0000\u0000\u0000\u0000\u0000\u0000\u0000\u0000\u0000\u0000\u0000\u0000",
        "\u0000\u0000\u0000\u0000\u0000\u0000\u0000\u0000\u0000\u0000\u0000\u0000\u0000\u0000\u0000\u0000\u0000\u0000\u0000\u0000\u0000\u0000\u0000\u0000\u0000\u0000\u0000\u0000\u0000\u0000\u0000\u0000\u0000\u0000\u0000\u0000\u0000\u0000\u0000\u0000\u0000\u0000\u0000\u0000\u0000\u0000\u0000\u0000\u0000\u0000\u0000\u0000\u0000\u0000\u0000\u0000\u0000\u0000\u0000\u0000\u0000\u0000\u0000\u0000\u0000\u0000\u0000\u0000",
        "\u0000\u0000\u0000\u0000\u0000\u0000\u0000\u0000\u0000\u0000\u0000\u0000\u0000\u0000\u0000\u0000\u0000\u0000\u0000\u0000\u0000\u0000\u0000\u0000\u0000\u0000\u0000\u0000\u0000\u0000\u0000\u0000\u0000\u0000\u0000\u0000\u0000\u0000\u0000\u0000\u0000\u0000\u0000\u0000\u0000\u0000\u0000\u0000\u0000\u0000\u0000\u0000\u0000\u0000\u0000\u0000\u0000\u0000\u0000\u0000\u0000\u0000\u0000\u0000\u0000\u0000\u0000\u0000",
        "\u0000\u0000\u0000\u0000\u0000\u0000\u0000\u0000\u0000\u0000\u0000\u0000\u0000\u0000\u0000\u0000\u0000\u0000\u0000\u0000\u0000\u0000\u0000\u0000\u0000\u0000\u0000\u0000\u0000\u0000\u0000\u0000\u0000\u0000\u0000\u0000\u0000\u0000\u0000\u0000\u0000\u0000\u0000\u0000\u0000\u0000\u0000\u0000\u0000\u0000\u0000\u0000\u0000\u0000\u0000\u0000\u0000\u0000\u0000\u0000\u0000\u0000\u0000\u0000\u0000\u0000\u0000\u0000",
        "\u0000\u0000\u0000\u0000\u0000\u0000\u0000\u0000\u0000\u0000\u0000\u0000\u0000\u0000\u0000\u0000\u0000\u0000\u0000\u0000\u0000\u0000\u0000\u0000\u0000\u0000\u0000\u0000\u0000\u0000\u0000\u0000\u0000\u0000\u0000\u0000\u0000\u0000\u0000\u0000\u0000\u0000\u0000\u0000\u0000\u0000\u0000\u0000\u0000\u0000\u0000\u0000\u0000\u0000\u0000\u0000\u0000\u0000\u0000\u0000\u0000\u0000\u0000\u0000\u0000\u0000\u0000\u0000",
        "\u0000\u0000\u0000\u0000\u0000\u0000\u0000\u0000\u0000\u0000\u0000\u0000\u0000\u0000\u0000\u0000\u0000\u0000\u0000\u0000\u0000\u0000\u0000\u0000\u0000\u0000\u0000\u0000\u0000\u0000\u0000\u0000\u0000\u0000\u0000\u0000\u0000\u0000\u0000\u0000\u0000\u0000\u0000\u0000\u0000\u0000\u0000\u0000\u0000\u0000\u0000\u0000\u0000\u0000\u0000\u0000\u0000\u0000\u0000\u0000\u0000\u0000\u0000\u0000\u0000\u0000\u0000\u0000",
