{
  "AcquisitionMatrixPE": 70,
  "AcquisitionNumber": 1,
  "AcquisitionTime": "09:28:42.022500",
  "BandwidthPerPixelPhaseEncode": 51.948,
  "BaseResolution": 70,
  "BodyPartExamined": "HEAD",
  "CoilCombinationMethod": "Sum of Squares",
  "ConsistencyInfo": "N4_VE11C_LATEST_20160120",
  "ConversionSoftware": "dcm2niix",
  "ConversionSoftwareVersion": "v1.0.20220720",
  "DerivedVendorReportedEchoSpacing": 0.000550001,
  "DeviceSerialNumber": "66061",
  "DwellTime": 3.3e-06,
  "EchoTime": 0.022,
  "EchoTrainLength": 35,
  "EffectiveEchoSpacing": 0.000275,
  "FlipAngle": 90,
  "HeudiconvVersion": "1.1.1",
  "ImageOrientationPatientDICOM": [0.99877, 0.00769529, 0.0489804, -0.00122023, 0.991398, -0.130876],
  "ImageOrientationText": "Tra>Cor(-7.5)>Sag(2.8)",
  "ImageType": [
    "ORIGINAL",
    "PRIMARY",
    "M",
    "ND",
    "NORM",
    "MOSAIC"
],
  "ImagingFrequency": 123.254,
  "InPlanePhaseEncodingDirectionDICOM": "COL",
  "InstitutionAddress": "Street StreetNo,City/1c4204/,District,KR,ZIP",
  "InstitutionName": "SKKU",
  "InstitutionalDepartmentName": "Department",
  "MRAcquisitionType": "2D",
  "MagneticFieldStrength": 3,
  "Manufacturer": "Siemens",
  "ManufacturersModelName": "Prisma",
  "MatrixCoilMode": "GRAPPA",
  "Modality": "MR",
  "NonlinearGradientCorrection": false,
  "ParallelReductionFactorInPlane": 2,
  "PartialFourier": 1,
  "PatientPosition": "HFS",
  "PercentPhaseFOV": 100,
  "PercentSampling": 100,
  "PhaseEncodingDirection": "j-",
  "PhaseEncodingSteps": 70,
  "PhaseResolution": 1,
  "PixelBandwidth": 2165,
  "ProcedureStepDescription": "Head^PI:Others",
  "ProtocolName": "BOLD_ep2d_3x3x3_response1",
  "PulseSequenceDetails": "%SiemensSeq%\\ep2d_pace",
  "ReceiveCoilActiveElements": "HC1-7",
  "ReceiveCoilName": "HeadNeck_64",
  "ReconMatrixPE": 70,
  "RefLinesPE": 24,
  "RepetitionTime": 2,
  "SAR": 0.11349,
  "ScanOptions": "FS",
  "ScanningSequence": "EP",
  "SequenceName": "*epfid2d1_70",
  "SequenceVariant": "SK",
  "SeriesDescription": "BOLD_ep2d_3x3x3_response1",
  "SeriesNumber": 9,
  "ShimSetting": [5037, 3697, 4381, 454, -123, 96, 33, 7],
  "SliceThickness": 3,
  "SliceTiming": [0.99, 0, 1.0375, 0.0475, 1.0825, 0.0925, 1.13, 0.14, 1.1775, 0.1875, 1.225, 0.235, 1.2725, 0.2825, 1.32, 0.33, 1.3675, 0.3775, 1.4125, 0.4225, 1.46, 0.47, 1.5075, 0.5175, 1.555, 0.565, 1.6025, 0.6125, 1.65, 0.66, 1.6975, 0.7075, 1.7425, 0.7525, 1.79, 0.8, 1.8375, 0.8475, 1.885, 0.895, 1.9325, 0.9425],
  "SoftwareVersions": "syngo MR E11",
  "SpacingBetweenSlices": 3,
  "StationName": "AWP66061",
  "TaskName": "response",
  "TotalReadoutTime": 0.018975,
  "TxRefAmp": 215.3,
  "dcmmeta_affine": [
    [-2.996310234069824, -0.003660675836727023, 0.14869849383831024, 108.42183685302734],
    [-0.023085881024599075, 2.974193811416626, -0.3919670283794403, -92.91252899169922],
    [0.14694108068943024, 0.3926292359828949, 2.970564126968384, -60.047245025634766],
    [0.0, 0.0, 0.0, 1.0]
],
  "dcmmeta_reorient_transform": [
    [0.0, -1.0, 0.0, 69.0],
    [1.0, 0.0, 0.0, 0.0],
    [0.0, 0.0, -1.0, 41.0],
    [0.0, 0.0, 0.0, 1.0]
],
  "dcmmeta_shape": [70, 70, 42, 341],
  "dcmmeta_slice_dim": 2,
  "dcmmeta_version": 0.6,
  "global": {
    "const": {
      "AcquisitionMatrix": [70, 0, 0, 70],
      "AngioFlag": "N",
      "BitsAllocated": 16,
      "BitsStored": 12,
      "BodyPartExamined": "HEAD",
      "Columns": 490,
      "EchoNumbers": 1,
      "EchoTime": 22.0,
      "EchoTrainLength": 35,
      "FlipAngle": 90.0,
      "HighBit": 11,
      "ImageOrientationPatient": [0.9987700969442, 0.00769529394067, 0.04898036240414, -0.0012202252878, 0.99139794035, -0.1308764108617],
      "ImagePositionPatient": [-742.72230611147, -725.66493188962, 140.43180820173],
      "ImageType": [
        "ORIGINAL",
        "PRIMARY",
        "M",
        "ND",
        "NORM",
        "MOSAIC"
],
      "ImagedNucleus": "1H",
      "ImagingFrequency": 123.254039,
      "InPlanePhaseEncodingDirection": "COL",
      "MRAcquisitionType": "2D",
      "MagneticFieldStrength": 3.0,
      "Manufacturer": "SIEMENS",
      "ManufacturerModelName": "Prisma",
      "Modality": "MR",
      "NumberOfAverages": 1.0,
      "NumberOfPhaseEncodingSteps": 70,
      "PercentPhaseFieldOfView": 100.0,
      "PercentSampling": 100.0,
      "PerformedProcedureStepStartTime": "084749.711000",
      "PhotometricInterpretation": "MONOCHROME2",
      "PixelBandwidth": 2165.0,
      "PixelRepresentation": 0,
      "PixelSpacing": [3.0, 3.0],
      "ProtocolName": "BOLD_ep2d_3x3x3_response1",
      "RepetitionTime": 2000.0,
      "Rows": 490,
      "SAR": 0.11348974684937,
      "SamplesPerPixel": 1,
      "ScanOptions": "FS",
      "ScanningSequence": "EP",
      "SequenceName": "*epfid2d1_70",
      "SequenceVariant": "SK",
      "SeriesDescription": "BOLD_ep2d_3x3x3_response1",
      "SeriesNumber": 9,
      "SeriesTime": "092856.606000",
      "SliceLocation": 81.055543032199,
      "SliceThickness": 3.0,
      "SmallestImagePixelValue": 0,
      "SoftwareVersions": "syngo MR E11",
      "SpacingBetweenSlices": 3.000000005596,
      "SpecificCharacterSet": "ISO_IR 100",
      "StudyID": "1",
      "StudyTime": "084749.639000",
      "TransmitCoilName": "Body",
      "VariableFlipAngleFlag": "N",
      "WindowCenterWidthExplanation": "Algo1",
      "dBdt": 0.0},
    "slices": {}
  },
  "time": {
    "samples": {
      "AcquisitionNumber": [1, 2, 3, 4, 5, 6, 7, 8, 9, 10, 11, 12, 13, 14, 15, 16, 17, 18, 19, 20, 21, 22, 23, 24, 25, 26, 27, 28, 29, 30, 31, 32, 33, 34, 35, 36, 37, 38, 39, 40, 41, 42, 43, 44, 45, 46, 47, 48, 49, 50, 51, 52, 53, 54, 55, 56, 57, 58, 59, 60, 61, 62, 63, 64, 65, 66, 67, 68, 69, 70, 71, 72, 73, 74, 75, 76, 77, 78, 79, 80, 81, 82, 83, 84, 85, 86, 87, 88, 89, 90, 91, 92, 93, 94, 95, 96, 97, 98, 99, 100, 101, 102, 103, 104, 105, 106, 107, 108, 109, 110, 111, 112, 113, 114, 115, 116, 117, 118, 119, 120, 121, 122, 123, 124, 125, 126, 127, 128, 129, 130, 131, 132, 133, 134, 135, 136, 137, 138, 139, 140, 141, 142, 143, 144, 145, 146, 147, 148, 149, 150, 151, 152, 153, 154, 155, 156, 157, 158, 159, 160, 161, 162, 163, 164, 165, 166, 167, 168, 169, 170, 171, 172, 173, 174, 175, 176, 177, 178, 179, 180, 181, 182, 183, 184, 185, 186, 187, 188, 189, 190, 191, 192, 193, 194, 195, 196, 197, 198, 199, 200, 201, 202, 203, 204, 205, 206, 207, 208, 209, 210, 211, 212, 213, 214, 215, 216, 217, 218, 219, 220, 221, 222, 223, 224, 225, 226, 227, 228, 229, 230, 231, 232, 233, 234, 235, 236, 237, 238, 239, 240, 241, 242, 243, 244, 245, 246, 247, 248, 249, 250, 251, 252, 253, 254, 255, 256, 257, 258, 259, 260, 261, 262, 263, 264, 265, 266, 267, 268, 269, 270, 271, 272, 273, 274, 275, 276, 277, 278, 279, 280, 281, 282, 283, 284, 285, 286, 287, 288, 289, 290, 291, 292, 293, 294, 295, 296, 297, 298, 299, 300, 301, 302, 303, 304, 305, 306, 307, 308, 309, 310, 311, 312, 313, 314, 315, 316, 317, 318, 319, 320, 321, 322, 323, 324, 325, 326, 327, 328, 329, 330, 331, 332, 333, 334, 335, 336, 337, 338, 339, 340, 341],
      "AcquisitionTime": ["092842.022500", "092844.022500", "092846.022500", "092848.022500", "092850.022500", "092852.022500", "092854.022500", "092856.022500", "092858.022500", "092900.022500", "092902.022500", "092904.022500", "092906.022500", "092908.022500", "092910.022500", "092912.022500", "092914.022500", "092916.022500", "092918.022500", "092920.022500", "092922.022500", "092924.022500", "092926.022500", "092928.022500", "092930.022500", "092932.022500", "092934.022500", "092936.022500", "092938.022500", "092940.022500", "092942.022500", "092944.022500", "092946.022500", "092948.022500", "092950.022500", "092952.022500", "092954.022500", "092956.022500", "092958.022500", "093000.022500", "093002.022500", "093004.022500", "093006.022500", "093008.022500", "093010.022500", "093012.022500", "093014.022500", "093016.022500", "093018.022500", "093020.022500", "093022.022500", "093024.022500", "093026.022500", "093028.022500", "093030.022500", "093032.022500", "093034.022500", "093036.022500", "093038.022500", "093040.022500", "093042.022500", "093044.022500", "093046.022500", "093048.022500", "093050.022500", "093052.022500", "093054.022500", "093056.022500", "093058.022500", "093100.022500", "093102.022500", "093104.022500", "093106.022500", "093108.022500", "093110.022500", "093112.022500", "093114.022500", "093116.022500", "093118.022500", "093120.022500", "093122.022500", "093124.022500", "093126.022500", "093128.022500", "093130.022500", "093132.022500", "093134.022500", "093136.022500", "093138.022500", "093140.022500", "093142.022500", "093144.022500", "093146.022500", "093148.022500", "093150.022500", "093152.022500", "093154.022500", "093156.022500", "093158.022500", "093200.022500", "093202.022500", "093204.022500", "093206.022500", "093208.022500", "093210.022500", "093212.022500", "093214.022500", "093216.022500", "093218.022500", "093220.022500", "093222.022500", "093224.022500", "093226.022500", "093228.022500", "093230.022500", "093232.022500", "093234.022500", "093236.022500", "093238.022500", "093240.022500", "093242.022500", "093244.022500", "093246.022500", "093248.022500", "093250.022500", "093252.022500", "093254.022500", "093256.022500", "093258.022500", "093300.022500", "093302.022500", "093304.022500", "093306.022500", "093308.022500", "093310.022500", "093312.022500", "093314.022500", "093316.022500", "093318.022500", "093320.022500", "093322.022500", "093324.022500", "093326.022500", "093328.022500", "093330.022500", "093332.022500", "093334.022500", "093336.022500", "093338.022500", "093340.022500", "093342.022500", "093344.022500", "093346.022500", "093348.022500", "093350.022500", "093352.022500", "093354.022500", "093356.022500", "093358.022500", "093400.022500", "093402.022500", "093404.022500", "093406.022500", "093408.022500", "093410.022500", "093412.022500", "093414.022500", "093416.022500", "093418.022500", "093420.022500", "093422.022500", "093424.022500", "093426.022500", "093428.022500", "093430.022500", "093432.022500", "093434.022500", "093436.022500", "093438.022500", "093440.022500", "093442.022500", "093444.022500", "093446.022500", "093448.022500", "093450.022500", "093452.022500", "093454.022500", "093456.022500", "093458.022500", "093500.022500", "093502.022500", "093504.022500", "093506.022500", "093508.022500", "093510.022500", "093512.022500", "093514.022500", "093516.022500", "093518.022500", "093520.022500", "093522.022500", "093524.022500", "093526.022500", "093528.022500", "093530.022500", "093532.022500", "093534.022500", "093536.022500", "093538.022500", "093540.022500", "093542.022500", "093544.022500", "093546.022500", "093548.022500", "093550.022500", "093552.022500", "093554.022500", "093556.022500", "093558.022500", "093600.022500", "093602.022500", "093604.022500", "093606.022500", "093608.022500", "093610.022500", "093612.022500", "093614.022500", "093616.022500", "093618.022500", "093620.022500", "093622.022500", "093624.022500", "093626.022500", "093628.022500", "093630.022500", "093632.022500", "093634.022500", "093636.022500", "093638.022500", "093640.022500", "093642.022500", "093644.022500", "093646.022500", "093648.022500", "093650.022500", "093652.022500", "093654.022500", "093656.022500", "093658.022500", "093700.022500", "093702.022500", "093704.022500", "093706.022500", "093708.022500", "093710.022500", "093712.022500", "093714.022500", "093716.022500", "093718.022500", "093720.022500", "093722.022500", "093724.022500", "093726.022500", "093728.022500", "093730.022500", "093732.022500", "093734.022500", "093736.022500", "093738.022500", "093740.022500", "093742.022500", "093744.022500", "093746.022500", "093748.022500", "093750.022500", "093752.022500", "093754.022500", "093756.022500", "093758.022500", "093800.022500", "093802.022500", "093804.022500", "093806.022500", "093808.022500", "093810.022500", "093812.022500", "093814.022500", "093816.022500", "093818.022500", "093820.022500", "093822.022500", "093824.022500", "093826.022500", "093828.022500", "093830.022500", "093832.022500", "093834.022500", "093836.022500", "093838.022500", "093840.022500", "093842.022500", "093844.022500", "093846.022500", "093848.022500", "093850.022500", "093852.022500", "093854.022500", "093856.022500", "093858.022500", "093900.022500", "093902.022500", "093904.022500", "093906.022500", "093908.022500", "093910.022500", "093912.022500", "093914.022500", "093916.022500", "093918.022500", "093920.022500", "093922.022500", "093924.022500", "093926.022500", "093928.022500", "093930.022500", "093932.022500", "093934.022500", "093936.022500", "093938.022500", "093940.022500", "093942.022500", "093944.022500", "093946.022500", "093948.022500", "093950.022500", "093952.022500", "093954.022500", "093956.022500", "093958.022500", "094000.022500", "094002.022500"],
      "ContentTime": ["092856.609000", "092856.613000", "092856.616000", "092856.618000", "092856.621000", "092856.624000", "092856.626000", "092936.605000", "092936.608000", "092936.610000", "092936.613000", "092936.616000", "092936.618000", "092936.621000", "092936.624000", "092936.626000", "092936.629000", "092936.632000", "092936.642000", "092936.645000", "092936.648000", "092936.650000", "092936.653000", "092936.655000", "092936.658000", "092936.661000", "092936.663000", "093016.604000", "093016.608000", "093016.610000", "093016.613000", "093016.615000", "093016.618000", "093016.621000", "093016.624000", "093016.626000", "093016.629000", "093016.632000", "093016.634000", "093016.637000", "093016.639000", "093016.642000", "093016.645000", "093016.647000", "093016.650000", "093016.653000", "093016.655000", "093056.604000", "093056.606000", "093056.609000", "093056.612000", "093056.615000", "093056.617000", "093056.620000", "093056.623000", "093056.625000", "093056.628000", "093056.631000", "093056.633000", "093056.636000", "093056.638000", "093056.641000", "093056.644000", "093056.646000", "093056.649000", "093056.652000", "093056.654000", "093136.605000", "093136.607000", "093136.610000", "093136.613000", "093136.616000", "093136.618000", "093136.621000", "093136.624000", "093136.626000", "093136.629000", "093136.632000", "093136.635000", "093136.637000", "093136.640000", "093136.643000", "093136.645000", "093136.648000", "093136.651000", "093136.653000", "093136.656000", "093216.605000", "093216.607000", "093216.610000", "093216.613000", "093216.615000", "093216.618000", "093216.621000", "093216.623000", "093216.626000", "093216.629000", "093216.631000", "093216.634000", "093216.645000", "093216.648000", "093216.650000", "093216.653000", "093216.656000", "093216.658000", "093216.661000", "093216.664000", "093256.604000", "093256.607000", "093256.610000", "093256.613000", "093256.616000", "093256.618000", "093256.621000", "093256.624000", "093256.627000", "093256.629000", "093256.632000", "093256.635000", "093256.637000", "093256.640000", "093256.643000", "093256.645000", "093256.648000", "093256.651000", "093256.653000", "093256.656000", "093336.605000", "093336.607000", "093336.610000", "093336.613000", "093336.616000", "093336.618000", "093336.621000", "093336.624000", "093336.626000", "093336.629000", "093336.632000", "093336.634000", "093336.637000", "093336.640000", "093336.642000", "093336.645000", "093336.648000", "093336.650000", "093336.653000", "093336.656000", "093416.605000", "093416.608000", "093416.610000", "093416.613000", "093416.616000", "093416.618000", "093416.621000", "093416.624000", "093416.627000", "093416.629000", "093416.632000", "093416.635000", "093416.638000", "093416.640000", "093416.643000", "093416.646000", "093416.648000", "093416.651000", "093416.654000", "093416.656000", "093456.605000", "093456.608000", "093456.610000", "093456.623000", "093456.626000", "093456.629000", "093456.631000", "093456.634000", "093456.637000", "093456.639000", "093456.642000", "093456.644000", "093456.647000", "093456.650000", "093456.652000", "093456.655000", "093456.658000", "093456.660000", "093456.663000", "093456.666000", "093536.604000", "093536.607000", "093536.609000", "093536.612000", "093536.615000", "093536.617000", "093536.620000", "093536.623000", "093536.626000", "093536.628000", "093536.631000", "093536.634000", "093536.637000", "093536.639000", "093536.642000", "093536.645000", "093536.647000", "093536.650000", "093536.653000", "093536.655000", "093616.604000", "093616.608000", "093616.610000", "093616.613000", "093616.616000", "093616.618000", "093616.621000", "093616.624000", "093616.626000", "093616.629000", "093616.632000", "093616.634000", "093616.637000", "093616.640000", "093616.642000", "093616.645000", "093616.648000", "093616.650000", "093616.653000", "093616.656000", "093656.605000", "093656.608000", "093656.611000", "093656.613000", "093656.616000", "093656.619000", "093656.622000", "093656.624000", "093656.627000", "093656.630000", "093656.633000", "093656.635000", "093656.638000", "093656.641000", "093656.643000", "093656.646000", "093656.649000", "093656.652000", "093656.654000", "093656.657000", "093736.605000", "093736.608000", "093736.610000", "093736.613000", "093736.616000", "093736.619000", "093736.621000", "093736.624000", "093736.627000", "093736.630000", "093736.632000", "093736.635000", "093736.638000", "093736.641000", "093736.643000", "093736.646000", "093736.648000", "093736.651000", "093736.654000", "093736.657000", "093816.605000", "093816.607000", "093816.610000", "093816.613000", "093816.616000", "093816.618000", "093816.621000", "093816.624000", "093816.626000", "093816.629000", "093816.632000", "093816.634000", "093816.637000", "093816.640000", "093816.642000", "093816.645000", "093816.648000", "093816.650000", "093816.653000", "093816.656000", "093856.605000", "093856.608000", "093856.610000", "093856.613000", "093856.616000", "093856.619000", "093856.621000", "093856.624000", "093856.627000", "093856.630000", "093856.632000", "093856.635000", "093856.638000", "093856.640000", "093856.643000", "093856.646000", "093856.648000", "093856.651000", "093856.654000", "093856.657000", "093936.605000", "093936.608000", "093936.610000", "093936.613000", "093936.615000", "093936.618000", "093936.621000", "093936.623000", "093936.626000", "093936.629000", "093936.632000", "093936.634000", "093936.637000", "093936.640000", "093936.642000", "093936.645000", "093936.648000", "093936.650000", "093936.653000", "093936.656000", "094003.285000", "094003.288000", "094003.291000", "094003.294000", "094003.297000", "094003.299000", "094003.302000", "094003.305000", "094003.307000", "094003.310000", "094003.313000", "094003.316000", "094003.323000", "094003.326000"],
      "DataSetTrailingPadding": [
        "\u0000\u0000\u0000\u0000\u0000\u0000\u0000\u0000\u0000\u0000\u0000\u0000\u0000\u0000\u0000\u0000\u0000\u0000\u0000\u0000\u0000\u0000\u0000\u0000\u0000\u0000\u0000\u0000\u0000\u0000\u0000\u0000\u0000\u0000\u0000\u0000\u0000\u0000\u0000\u0000\u0000\u0000\u0000\u0000\u0000\u0000\u0000\u0000\u0000\u0000\u0000\u0000\u0000\u0000\u0000\u0000\u0000\u0000\u0000\u0000",
        "\u0000\u0000\u0000\u0000\u0000\u0000\u0000\u0000\u0000\u0000\u0000\u0000\u0000\u0000\u0000\u0000\u0000\u0000\u0000\u0000\u0000\u0000\u0000\u0000\u0000\u0000\u0000\u0000\u0000\u0000\u0000\u0000\u0000\u0000\u0000\u0000\u0000\u0000\u0000\u0000\u0000\u0000\u0000\u0000\u0000\u0000\u0000\u0000\u0000\u0000\u0000\u0000\u0000\u0000\u0000\u0000\u0000\u0000",
        "\u0000\u0000\u0000\u0000\u0000\u0000\u0000\u0000\u0000\u0000\u0000\u0000\u0000\u0000\u0000\u0000\u0000\u0000\u0000\u0000\u0000\u0000\u0000\u0000\u0000\u0000\u0000\u0000\u0000\u0000\u0000\u0000\u0000\u0000\u0000\u0000\u0000\u0000\u0000\u0000\u0000\u0000\u0000\u0000\u0000\u0000\u0000\u0000\u0000\u0000\u0000\u0000\u0000\u0000\u0000\u0000\u0000\u0000",
        "\u0000\u0000\u0000\u0000\u0000\u0000\u0000\u0000\u0000\u0000\u0000\u0000\u0000\u0000\u0000\u0000\u0000\u0000\u0000\u0000\u0000\u0000\u0000\u0000\u0000\u0000\u0000\u0000\u0000\u0000\u0000\u0000\u0000\u0000\u0000\u0000\u0000\u0000\u0000\u0000\u0000\u0000\u0000\u0000\u0000\u0000\u0000\u0000\u0000\u0000\u0000\u0000\u0000\u0000\u0000\u0000\u0000\u0000",
        "\u0000\u0000\u0000\u0000\u0000\u0000\u0000\u0000\u0000\u0000\u0000\u0000\u0000\u0000\u0000\u0000\u0000\u0000\u0000\u0000\u0000\u0000\u0000\u0000\u0000\u0000\u0000\u0000\u0000\u0000\u0000\u0000\u0000\u0000\u0000\u0000\u0000\u0000\u0000\u0000\u0000\u0000\u0000\u0000\u0000\u0000\u0000\u0000\u0000\u0000\u0000\u0000\u0000\u0000\u0000\u0000",
        "\u0000\u0000\u0000\u0000\u0000\u0000\u0000\u0000\u0000\u0000\u0000\u0000\u0000\u0000\u0000\u0000\u0000\u0000\u0000\u0000\u0000\u0000\u0000\u0000\u0000\u0000\u0000\u0000\u0000\u0000\u0000\u0000\u0000\u0000\u0000\u0000\u0000\u0000\u0000\u0000\u0000\u0000\u0000\u0000\u0000\u0000\u0000\u0000\u0000\u0000\u0000\u0000\u0000\u0000\u0000\u0000",
        "\u0000\u0000\u0000\u0000\u0000\u0000\u0000\u0000\u0000\u0000\u0000\u0000\u0000\u0000\u0000\u0000\u0000\u0000\u0000\u0000\u0000\u0000\u0000\u0000\u0000\u0000\u0000\u0000\u0000\u0000\u0000\u0000\u0000\u0000\u0000\u0000\u0000\u0000\u0000\u0000\u0000\u0000\u0000\u0000\u0000\u0000\u0000\u0000\u0000\u0000\u0000\u0000\u0000\u0000\u0000\u0000",
        "\u0000\u0000\u0000\u0000\u0000\u0000\u0000\u0000\u0000\u0000\u0000\u0000\u0000\u0000\u0000\u0000\u0000\u0000\u0000\u0000\u0000\u0000\u0000\u0000\u0000\u0000\u0000\u0000\u0000\u0000\u0000\u0000\u0000\u0000\u0000\u0000\u0000\u0000\u0000\u0000\u0000\u0000\u0000\u0000\u0000\u0000\u0000\u0000\u0000\u0000\u0000\u0000\u0000\u0000\u0000\u0000",
        "\u0000\u0000\u0000\u0000\u0000\u0000\u0000\u0000\u0000\u0000\u0000\u0000\u0000\u0000\u0000\u0000\u0000\u0000\u0000\u0000\u0000\u0000\u0000\u0000\u0000\u0000\u0000\u0000\u0000\u0000\u0000\u0000\u0000\u0000\u0000\u0000\u0000\u0000\u0000\u0000\u0000\u0000\u0000\u0000\u0000\u0000\u0000\u0000\u0000\u0000\u0000\u0000\u0000\u0000\u0000\u0000",
        "\u0000\u0000\u0000\u0000\u0000\u0000\u0000\u0000\u0000\u0000\u0000\u0000\u0000\u0000\u0000\u0000\u0000\u0000\u0000\u0000\u0000\u0000\u0000\u0000\u0000\u0000\u0000\u0000\u0000\u0000\u0000\u0000\u0000\u0000\u0000\u0000\u0000\u0000\u0000\u0000\u0000\u0000\u0000\u0000\u0000\u0000\u0000\u0000\u0000\u0000\u0000\u0000\u0000\u0000\u0000\u0000",
        "\u0000\u0000\u0000\u0000\u0000\u0000\u0000\u0000\u0000\u0000\u0000\u0000\u0000\u0000\u0000\u0000\u0000\u0000\u0000\u0000\u0000\u0000\u0000\u0000\u0000\u0000\u0000\u0000\u0000\u0000\u0000\u0000\u0000\u0000\u0000\u0000\u0000\u0000\u0000\u0000\u0000\u0000\u0000\u0000\u0000\u0000\u0000\u0000\u0000\u0000\u0000\u0000\u0000\u0000\u0000\u0000",
        "\u0000\u0000\u0000\u0000\u0000\u0000\u0000\u0000\u0000\u0000\u0000\u0000\u0000\u0000\u0000\u0000\u0000\u0000\u0000\u0000\u0000\u0000\u0000\u0000\u0000\u0000\u0000\u0000\u0000\u0000\u0000\u0000\u0000\u0000\u0000\u0000\u0000\u0000\u0000\u0000\u0000\u0000\u0000\u0000\u0000\u0000\u0000\u0000\u0000\u0000\u0000\u0000\u0000\u0000\u0000\u0000",
        "\u0000\u0000\u0000\u0000\u0000\u0000\u0000\u0000\u0000\u0000\u0000\u0000\u0000\u0000\u0000\u0000\u0000\u0000\u0000\u0000\u0000\u0000\u0000\u0000\u0000\u0000\u0000\u0000\u0000\u0000\u0000\u0000\u0000\u0000\u0000\u0000\u0000\u0000\u0000\u0000\u0000\u0000\u0000\u0000\u0000\u0000\u0000\u0000\u0000\u0000\u0000\u0000\u0000\u0000\u0000\u0000",
        "\u0000\u0000\u0000\u0000\u0000\u0000\u0000\u0000\u0000\u0000\u0000\u0000\u0000\u0000\u0000\u0000\u0000\u0000\u0000\u0000\u0000\u0000\u0000\u0000\u0000\u0000\u0000\u0000\u0000\u0000\u0000\u0000\u0000\u0000\u0000\u0000\u0000\u0000\u0000\u0000\u0000\u0000\u0000\u0000\u0000\u0000\u0000\u0000\u0000\u0000\u0000\u0000\u0000\u0000\u0000\u0000",
        "\u0000\u0000\u0000\u0000\u0000\u0000\u0000\u0000\u0000\u0000\u0000\u0000\u0000\u0000\u0000\u0000\u0000\u0000\u0000\u0000\u0000\u0000\u0000\u0000\u0000\u0000\u0000\u0000\u0000\u0000\u0000\u0000\u0000\u0000\u0000\u0000\u0000\u0000\u0000\u0000\u0000\u0000\u0000\u0000\u0000\u0000\u0000\u0000\u0000\u0000\u0000\u0000\u0000\u0000\u0000\u0000",
        "\u0000\u0000\u0000\u0000\u0000\u0000\u0000\u0000\u0000\u0000\u0000\u0000\u0000\u0000\u0000\u0000\u0000\u0000\u0000\u0000\u0000\u0000\u0000\u0000\u0000\u0000\u0000\u0000\u0000\u0000\u0000\u0000\u0000\u0000\u0000\u0000\u0000\u0000\u0000\u0000\u0000\u0000\u0000\u0000\u0000\u0000\u0000\u0000\u0000\u0000\u0000\u0000\u0000\u0000\u0000\u0000",
        "\u0000\u0000\u0000\u0000\u0000\u0000\u0000\u0000\u0000\u0000\u0000\u0000\u0000\u0000\u0000\u0000\u0000\u0000\u0000\u0000\u0000\u0000\u0000\u0000\u0000\u0000\u0000\u0000\u0000\u0000\u0000\u0000\u0000\u0000\u0000\u0000\u0000\u0000\u0000\u0000\u0000\u0000\u0000\u0000\u0000\u0000\u0000\u0000\u0000\u0000\u0000\u0000\u0000\u0000\u0000\u0000",
        "\u0000\u0000\u0000\u0000\u0000\u0000\u0000\u0000\u0000\u0000\u0000\u0000\u0000\u0000\u0000\u0000\u0000\u0000\u0000\u0000\u0000\u0000\u0000\u0000\u0000\u0000\u0000\u0000\u0000\u0000\u0000\u0000\u0000\u0000\u0000\u0000\u0000\u0000\u0000\u0000\u0000\u0000\u0000\u0000\u0000\u0000\u0000\u0000\u0000\u0000\u0000\u0000\u0000\u0000\u0000\u0000",
        "\u0000\u0000\u0000\u0000\u0000\u0000\u0000\u0000\u0000\u0000\u0000\u0000\u0000\u0000\u0000\u0000\u0000\u0000\u0000\u0000\u0000\u0000\u0000\u0000\u0000\u0000\u0000\u0000\u0000\u0000\u0000\u0000\u0000\u0000\u0000\u0000\u0000\u0000\u0000\u0000\u0000\u0000\u0000\u0000\u0000\u0000\u0000\u0000\u0000\u0000\u0000\u0000\u0000\u0000\u0000\u0000",
        "\u0000\u0000\u0000\u0000\u0000\u0000\u0000\u0000\u0000\u0000\u0000\u0000\u0000\u0000\u0000\u0000\u0000\u0000\u0000\u0000\u0000\u0000\u0000\u0000\u0000\u0000\u0000\u0000\u0000\u0000\u0000\u0000\u0000\u0000\u0000\u0000\u0000\u0000\u0000\u0000\u0000\u0000\u0000\u0000\u0000\u0000\u0000\u0000\u0000\u0000\u0000\u0000\u0000\u0000\u0000\u0000",
        "\u0000\u0000\u0000\u0000\u0000\u0000\u0000\u0000\u0000\u0000\u0000\u0000\u0000\u0000\u0000\u0000\u0000\u0000\u0000\u0000\u0000\u0000\u0000\u0000\u0000\u0000\u0000\u0000\u0000\u0000\u0000\u0000\u0000\u0000\u0000\u0000\u0000\u0000\u0000\u0000\u0000\u0000\u0000\u0000\u0000\u0000\u0000\u0000\u0000\u0000\u0000\u0000\u0000\u0000\u0000\u0000",
        "\u0000\u0000\u0000\u0000\u0000\u0000\u0000\u0000\u0000\u0000\u0000\u0000\u0000\u0000\u0000\u0000\u0000\u0000\u0000\u0000\u0000\u0000\u0000\u0000\u0000\u0000\u0000\u0000\u0000\u0000\u0000\u0000\u0000\u0000\u0000\u0000\u0000\u0000\u0000\u0000\u0000\u0000\u0000\u0000\u0000\u0000\u0000\u0000\u0000\u0000\u0000\u0000\u0000\u0000\u0000\u0000",
        "\u0000\u0000\u0000\u0000\u0000\u0000\u0000\u0000\u0000\u0000\u0000\u0000\u0000\u0000\u0000\u0000\u0000\u0000\u0000\u0000\u0000\u0000\u0000\u0000\u0000\u0000\u0000\u0000\u0000\u0000\u0000\u0000\u0000\u0000\u0000\u0000\u0000\u0000\u0000\u0000\u0000\u0000\u0000\u0000\u0000\u0000\u0000\u0000\u0000\u0000\u0000\u0000\u0000\u0000\u0000\u0000",
        "\u0000\u0000\u0000\u0000\u0000\u0000\u0000\u0000\u0000\u0000\u0000\u0000\u0000\u0000\u0000\u0000\u0000\u0000\u0000\u0000\u0000\u0000\u0000\u0000\u0000\u0000\u0000\u0000\u0000\u0000\u0000\u0000\u0000\u0000\u0000\u0000\u0000\u0000\u0000\u0000\u0000\u0000\u0000\u0000\u0000\u0000\u0000\u0000\u0000\u0000\u0000\u0000\u0000\u0000\u0000\u0000",
        "\u0000\u0000\u0000\u0000\u0000\u0000\u0000\u0000\u0000\u0000\u0000\u0000\u0000\u0000\u0000\u0000\u0000\u0000\u0000\u0000\u0000\u0000\u0000\u0000\u0000\u0000\u0000\u0000\u0000\u0000\u0000\u0000\u0000\u0000\u0000\u0000\u0000\u0000\u0000\u0000\u0000\u0000\u0000\u0000\u0000\u0000\u0000\u0000\u0000\u0000\u0000\u0000\u0000\u0000\u0000\u0000",
        "\u0000\u0000\u0000\u0000\u0000\u0000\u0000\u0000\u0000\u0000\u0000\u0000\u0000\u0000\u0000\u0000\u0000\u0000\u0000\u0000\u0000\u0000\u0000\u0000\u0000\u0000\u0000\u0000\u0000\u0000\u0000\u0000\u0000\u0000\u0000\u0000\u0000\u0000\u0000\u0000\u0000\u0000\u0000\u0000\u0000\u0000\u0000\u0000\u0000\u0000\u0000\u0000\u0000\u0000\u0000\u0000",
        "\u0000\u0000\u0000\u0000\u0000\u0000\u0000\u0000\u0000\u0000\u0000\u0000\u0000\u0000\u0000\u0000\u0000\u0000\u0000\u0000\u0000\u0000\u0000\u0000\u0000\u0000\u0000\u0000\u0000\u0000\u0000\u0000\u0000\u0000\u0000\u0000\u0000\u0000\u0000\u0000\u0000\u0000\u0000\u0000\u0000\u0000\u0000\u0000\u0000\u0000\u0000\u0000\u0000\u0000\u0000\u0000",
        "\u0000\u0000\u0000\u0000\u0000\u0000\u0000\u0000\u0000\u0000\u0000\u0000\u0000\u0000\u0000\u0000\u0000\u0000\u0000\u0000\u0000\u0000\u0000\u0000\u0000\u0000\u0000\u0000\u0000\u0000\u0000\u0000\u0000\u0000\u0000\u0000\u0000\u0000\u0000\u0000\u0000\u0000\u0000\u0000\u0000\u0000\u0000\u0000\u0000\u0000\u0000\u0000\u0000\u0000\u0000\u0000",
        "\u0000\u0000\u0000\u0000\u0000\u0000\u0000\u0000\u0000\u0000\u0000\u0000\u0000\u0000\u0000\u0000\u0000\u0000\u0000\u0000\u0000\u0000\u0000\u0000\u0000\u0000\u0000\u0000\u0000\u0000\u0000\u0000\u0000\u0000\u0000\u0000\u0000\u0000\u0000\u0000\u0000\u0000\u0000\u0000\u0000\u0000\u0000\u0000\u0000\u0000\u0000\u0000\u0000\u0000\u0000\u0000",
        "\u0000\u0000\u0000\u0000\u0000\u0000\u0000\u0000\u0000\u0000\u0000\u0000\u0000\u0000\u0000\u0000\u0000\u0000\u0000\u0000\u0000\u0000\u0000\u0000\u0000\u0000\u0000\u0000\u0000\u0000\u0000\u0000\u0000\u0000\u0000\u0000\u0000\u0000\u0000\u0000\u0000\u0000\u0000\u0000\u0000\u0000\u0000\u0000\u0000\u0000\u0000\u0000\u0000\u0000\u0000\u0000",
        "\u0000\u0000\u0000\u0000\u0000\u0000\u0000\u0000\u0000\u0000\u0000\u0000\u0000\u0000\u0000\u0000\u0000\u0000\u0000\u0000\u0000\u0000\u0000\u0000\u0000\u0000\u0000\u0000\u0000\u0000\u0000\u0000\u0000\u0000\u0000\u0000\u0000\u0000\u0000\u0000\u0000\u0000\u0000\u0000\u0000\u0000\u0000\u0000\u0000\u0000\u0000\u0000\u0000\u0000\u0000\u0000",
        "\u0000\u0000\u0000\u0000\u0000\u0000\u0000\u0000\u0000\u0000\u0000\u0000\u0000\u0000\u0000\u0000\u0000\u0000\u0000\u0000\u0000\u0000\u0000\u0000\u0000\u0000\u0000\u0000\u0000\u0000\u0000\u0000\u0000\u0000\u0000\u0000\u0000\u0000\u0000\u0000\u0000\u0000\u0000\u0000\u0000\u0000\u0000\u0000\u0000\u0000\u0000\u0000\u0000\u0000\u0000\u0000",
