{
  "AcquisitionMatrixPE": 70,
  "AcquisitionNumber": 1,
  "AcquisitionTime": "11:35:47.582500",
  "BandwidthPerPixelPhaseEncode": 51.948,
  "BaseResolution": 70,
  "BodyPartExamined": "HEAD",
  "CoilCombinationMethod": "Sum of Squares",
  "ConsistencyInfo": "N4_VE11C_LATEST_20160120",
  "ConversionSoftware": "dcm2niix",
  "ConversionSoftwareVersion": "v1.0.20220720",
  "DerivedVendorReportedEchoSpacing": 0.000550001,
  "DeviceSerialNumber": "66061",
  "DwellTime": 3.3e-06,
  "EchoTime": 0.022,
  "EchoTrainLength": 35,
  "EffectiveEchoSpacing": 0.000275,
  "FlipAngle": 90,
  "HeudiconvVersion": "1.1.1",
  "ImageOrientationPatientDICOM": [0.999574, 0.00740791, 0.0282298, -0.00122123, 0.97702, -0.213143],
  "ImageOrientationText": "Tra>Cor(-12.3)>Sag(1.7)",
  "ImageType": [
    "ORIGINAL",
    "PRIMARY",
    "M",
    "ND",
    "NORM",
    "MOSAIC"
],
  "ImagingFrequency": 123.254,
  "InPlanePhaseEncodingDirectionDICOM": "COL",
  "InstitutionAddress": "Street StreetNo,City/1c4204/,District,KR,ZIP",
  "InstitutionName": "SKKU",
  "InstitutionalDepartmentName": "Department",
  "MRAcquisitionType": "2D",
  "MagneticFieldStrength": 3,
  "Manufacturer": "Siemens",
  "ManufacturersModelName": "Prisma",
  "MatrixCoilMode": "GRAPPA",
  "Modality": "MR",
  "NonlinearGradientCorrection": false,
  "ParallelReductionFactorInPlane": 2,
  "PartialFourier": 1,
  "PatientPosition": "HFS",
  "PercentPhaseFOV": 100,
  "PercentSampling": 100,
  "PhaseEncodingDirection": "j-",
  "PhaseEncodingSteps": 70,
  "PhaseResolution": 1,
  "PixelBandwidth": 2165,
  "ProcedureStepDescription": "Head^PI:Others",
  "ProtocolName": "BOLD_ep2d_3x3x3_response1",
  "PulseSequenceDetails": "%SiemensSeq%\\ep2d_pace",
  "ReceiveCoilActiveElements": "HC1-7",
  "ReceiveCoilName": "HeadNeck_64",
  "ReconMatrixPE": 70,
  "RefLinesPE": 24,
  "RepetitionTime": 2,
  "SAR": 0.135634,
  "ScanOptions": "FS",
  "ScanningSequence": "EP",
  "SequenceName": "*epfid2d1_70",
  "SequenceVariant": "SK",
  "SeriesDescription": "BOLD_ep2d_3x3x3_response1",
  "SeriesNumber": 4,
  "ShimSetting": [5030, 3761, 4469, 303, -166, 73, -62, 58],
  "SliceThickness": 3,
  "SliceTiming": [0.99, 0, 1.0375, 0.0475, 1.085, 0.095, 1.1325, 0.1425, 1.1775, 0.19, 1.225, 0.235, 1.2725, 0.2825, 1.32, 0.33, 1.3675, 0.3775, 1.415, 0.425, 1.4625, 0.4725, 1.5075, 0.5175, 1.555, 0.565, 1.6025, 0.6125, 1.65, 0.66, 1.6975, 0.7075, 1.745, 0.755, 1.7925, 0.8025, 1.8375, 0.8475, 1.885, 0.895, 1.9325, 0.9425],
  "SoftwareVersions": "syngo MR E11",
  "SpacingBetweenSlices": 3,
  "StationName": "AWP66061",
  "TaskName": "response",
  "TotalReadoutTime": 0.018975,
  "TxRefAmp": 234.551,
  "dcmmeta_affine": [
    [-2.9987220764160156, -0.00366368074901402, 0.08748002350330353, 107.49411010742188],
    [-0.022223738953471184, 2.931060791015625, -0.63905268907547, -87.5755386352539],
    [0.08468932658433914, 0.6394284963607788, 2.9298393726348877, -64.20186614990234],
    [0.0, 0.0, 0.0, 1.0]
],
  "dcmmeta_reorient_transform": [
    [0.0, -1.0, 0.0, 69.0],
    [1.0, 0.0, 0.0, 0.0],
    [0.0, 0.0, -1.0, 41.0],
    [0.0, 0.0, 0.0, 1.0]
],
  "dcmmeta_shape": [70, 70, 42, 341],
  "dcmmeta_slice_dim": 2,
  "dcmmeta_version": 0.6,
  "global": {
    "const": {
      "AcquisitionMatrix": [70, 0, 0, 70],
      "AngioFlag": "N",
      "BitsAllocated": 16,
      "BitsStored": 12,
      "BodyPartExamined": "HEAD",
      "Columns": 490,
      "EchoNumbers": 1,
      "EchoTime": 22.0,
      "EchoTrainLength": 35,
      "FlipAngle": 90.0,
      "HighBit": 11,
      "ImageOrientationPatient": [0.99957401054598, 0.00740791291341, 0.028229776253, -0.0012212268889, 0.9770202866561, -0.2131428348956],
      "ImagePositionPatient": [-739.79024727806, -708.65626724908, 216.53734169359],
      "ImageType": [
        "ORIGINAL",
        "PRIMARY",
        "M",
        "ND",
        "NORM",
        "MOSAIC"
],
      "ImagedNucleus": "1H",
      "ImagingFrequency": 123.254447,
      "InPlanePhaseEncodingDirection": "COL",
      "MRAcquisitionType": "2D",
      "MagneticFieldStrength": 3.0,
      "Manufacturer": "SIEMENS",
      "ManufacturerModelName": "Prisma",
      "Modality": "MR",
      "NumberOfAverages": 1.0,
      "NumberOfPhaseEncodingSteps": 70,
      "PercentPhaseFieldOfView": 100.0,
      "PercentSampling": 100.0,
      "PerformedProcedureStepStartTime": "112941.830000",
      "PhotometricInterpretation": "MONOCHROME2",
      "PixelBandwidth": 2165.0,
      "PixelRepresentation": 0,
      "PixelSpacing": [3.0, 3.0],
      "ProtocolName": "BOLD_ep2d_3x3x3_response1",
      "RepetitionTime": 2000.0,
      "Rows": 490,
      "SAR": 0.13563412207215,
      "SamplesPerPixel": 1,
      "ScanOptions": "FS",
      "ScanningSequence": "EP",
      "SequenceName": "*epfid2d1_70",
      "SequenceVariant": "SK",
      "SeriesDescription": "BOLD_ep2d_3x3x3_response1",
      "SeriesNumber": 4,
      "SeriesTime": "113632.869000",
      "SliceLocation": 82.089269672243,
      "SliceThickness": 3.0,
      "SmallestImagePixelValue": 0,
      "SoftwareVersions": "syngo MR E11",
      "SpacingBetweenSlices": 3.0000000316076,
      "SpecificCharacterSet": "ISO_IR 100",
      "StudyID": "1",
      "StudyTime": "112941.765000",
      "TransmitCoilName": "Body",
      "VariableFlipAngleFlag": "N",
      "WindowCenterWidthExplanation": "Algo1",
      "dBdt": 0.0},
    "slices": {}
  },
  "time": {
    "samples": {
      "AcquisitionNumber": [1, 2, 3, 4, 5, 6, 7, 8, 9, 10, 11, 12, 13, 14, 15, 16, 17, 18, 19, 20, 21, 22, 23, 24, 25, 26, 27, 28, 29, 30, 31, 32, 33, 34, 35, 36, 37, 38, 39, 40, 41, 42, 43, 44, 45, 46, 47, 48, 49, 50, 51, 52, 53, 54, 55, 56, 57, 58, 59, 60, 61, 62, 63, 64, 65, 66, 67, 68, 69, 70, 71, 72, 73, 74, 75, 76, 77, 78, 79, 80, 81, 82, 83, 84, 85, 86, 87, 88, 89, 90, 91, 92, 93, 94, 95, 96, 97, 98, 99, 100, 101, 102, 103, 104, 105, 106, 107, 108, 109, 110, 111, 112, 113, 114, 115, 116, 117, 118, 119, 120, 121, 122, 123, 124, 125, 126, 127, 128, 129, 130, 131, 132, 133, 134, 135, 136, 137, 138, 139, 140, 141, 142, 143, 144, 145, 146, 147, 148, 149, 150, 151, 152, 153, 154, 155, 156, 157, 158, 159, 160, 161, 162, 163, 164, 165, 166, 167, 168, 169, 170, 171, 172, 173, 174, 175, 176, 177, 178, 179, 180, 181, 182, 183, 184, 185, 186, 187, 188, 189, 190, 191, 192, 193, 194, 195, 196, 197, 198, 199, 200, 201, 202, 203, 204, 205, 206, 207, 208, 209, 210, 211, 212, 213, 214, 215, 216, 217, 218, 219, 220, 221, 222, 223, 224, 225, 226, 227, 228, 229, 230, 231, 232, 233, 234, 235, 236, 237, 238, 239, 240, 241, 242, 243, 244, 245, 246, 247, 248, 249, 250, 251, 252, 253, 254, 255, 256, 257, 258, 259, 260, 261, 262, 263, 264, 265, 266, 267, 268, 269, 270, 271, 272, 273, 274, 275, 276, 277, 278, 279, 280, 281, 282, 283, 284, 285, 286, 287, 288, 289, 290, 291, 292, 293, 294, 295, 296, 297, 298, 299, 300, 301, 302, 303, 304, 305, 306, 307, 308, 309, 310, 311, 312, 313, 314, 315, 316, 317, 318, 319, 320, 321, 322, 323, 324, 325, 326, 327, 328, 329, 330, 331, 332, 333, 334, 335, 336, 337, 338, 339, 340, 341],
      "AcquisitionTime": ["113547.582500", "113549.582500", "113551.582500", "113553.582500", "113555.582500", "113557.582500", "113559.582500", "113601.582500", "113603.582500", "113605.582500", "113607.582500", "113609.582500", "113611.582500", "113613.582500", "113615.582500", "113617.582500", "113619.582500", "113621.582500", "113623.582500", "113625.582500", "113627.582500", "113629.582500", "113631.582500", "113633.582500", "113635.582500", "113637.582500", "113639.582500", "113641.582500", "113643.582500", "113645.582500", "113647.582500", "113649.582500", "113651.582500", "113653.582500", "113655.582500", "113657.582500", "113659.582500", "113701.582500", "113703.582500", "113705.582500", "113707.582500", "113709.582500", "113711.582500", "113713.582500", "113715.582500", "113717.582500", "113719.582500", "113721.582500", "113723.582500", "113725.582500", "113727.582500", "113729.582500", "113731.582500", "113733.582500", "113735.582500", "113737.582500", "113739.582500", "113741.582500", "113743.582500", "113745.582500", "113747.582500", "113749.582500", "113751.582500", "113753.582500", "113755.582500", "113757.582500", "113759.582500", "113801.582500", "113803.582500", "113805.582500", "113807.582500", "113809.582500", "113811.582500", "113813.582500", "113815.582500", "113817.582500", "113819.582500", "113821.582500", "113823.582500", "113825.582500", "113827.582500", "113829.582500", "113831.582500", "113833.582500", "113835.582500", "113837.582500", "113839.582500", "113841.582500", "113843.582500", "113845.582500", "113847.582500", "113849.582500", "113851.582500", "113853.582500", "113855.582500", "113857.582500", "113859.582500", "113901.582500", "113903.582500", "113905.582500", "113907.582500", "113909.582500", "113911.582500", "113913.582500", "113915.582500", "113917.582500", "113919.582500", "113921.582500", "113923.582500", "113925.582500", "113927.582500", "113929.582500", "113931.582500", "113933.582500", "113935.582500", "113937.582500", "113939.582500", "113941.582500", "113943.582500", "113945.582500", "113947.582500", "113949.582500", "113951.582500", "113953.582500", "113955.582500", "113957.582500", "113959.582500", "114001.582500", "114003.582500", "114005.582500", "114007.582500", "114009.582500", "114011.582500", "114013.582500", "114015.582500", "114017.582500", "114019.582500", "114021.582500", "114023.582500", "114025.582500", "114027.582500", "114029.582500", "114031.582500", "114033.582500", "114035.582500", "114037.582500", "114039.582500", "114041.582500", "114043.582500", "114045.582500", "114047.582500", "114049.582500", "114051.582500", "114053.582500", "114055.582500", "114057.582500", "114059.582500", "114101.582500", "114103.582500", "114105.582500", "114107.582500", "114109.582500", "114111.582500", "114113.582500", "114115.582500", "114117.582500", "114119.582500", "114121.582500", "114123.582500", "114125.582500", "114127.582500", "114129.582500", "114131.582500", "114133.582500", "114135.582500", "114137.582500", "114139.582500", "114141.582500", "114143.582500", "114145.582500", "114147.582500", "114149.582500", "114151.582500", "114153.582500", "114155.582500", "114157.582500", "114159.582500", "114201.582500", "114203.582500", "114205.582500", "114207.582500", "114209.582500", "114211.582500", "114213.582500", "114215.582500", "114217.582500", "114219.582500", "114221.582500", "114223.582500", "114225.582500", "114227.582500", "114229.582500", "114231.582500", "114233.582500", "114235.582500", "114237.582500", "114239.582500", "114241.582500", "114243.582500", "114245.582500", "114247.582500", "114249.582500", "114251.582500", "114253.582500", "114255.582500", "114257.582500", "114259.582500", "114301.582500", "114303.582500", "114305.582500", "114307.582500", "114309.582500", "114311.582500", "114313.582500", "114315.582500", "114317.582500", "114319.582500", "114321.582500", "114323.582500", "114325.582500", "114327.582500", "114329.582500", "114331.582500", "114333.582500", "114335.582500", "114337.582500", "114339.582500", "114341.582500", "114343.582500", "114345.582500", "114347.582500", "114349.582500", "114351.582500", "114353.582500", "114355.582500", "114357.582500", "114359.582500", "114401.582500", "114403.582500", "114405.582500", "114407.582500", "114409.582500", "114411.582500", "114413.582500", "114415.582500", "114417.582500", "114419.582500", "114421.582500", "114423.582500", "114425.582500", "114427.582500", "114429.582500", "114431.582500", "114433.582500", "114435.582500", "114437.582500", "114439.582500", "114441.582500", "114443.582500", "114445.582500", "114447.582500", "114449.582500", "114451.582500", "114453.582500", "114455.582500", "114457.582500", "114459.582500", "114501.582500", "114503.582500", "114505.582500", "114507.582500", "114509.582500", "114511.582500", "114513.582500", "114515.582500", "114517.582500", "114519.582500", "114521.582500", "114523.582500", "114525.582500", "114527.582500", "114529.582500", "114531.582500", "114533.582500", "114535.582500", "114537.582500", "114539.582500", "114541.582500", "114543.582500", "114545.582500", "114547.582500", "114549.582500", "114551.582500", "114553.582500", "114555.582500", "114557.582500", "114559.582500", "114601.582500", "114603.582500", "114605.582500", "114607.582500", "114609.582500", "114611.582500", "114613.582500", "114615.582500", "114617.582500", "114619.582500", "114621.582500", "114623.582500", "114625.582500", "114627.582500", "114629.582500", "114631.582500", "114633.582500", "114635.582500", "114637.582500", "114639.582500", "114641.582500", "114643.582500", "114645.582500", "114647.582500", "114649.582500", "114651.582500", "114653.582500", "114655.582500", "114657.582500", "114659.582500", "114701.582500", "114703.582500", "114705.582500", "114707.582500"],
      "ContentTime": ["113632.873000", "113632.876000", "113632.879000", "113632.882000", "113632.891000", "113632.894000", "113632.896000", "113632.899000", "113632.902000", "113632.905000", "113632.907000", "113632.910000", "113632.913000", "113632.915000", "113632.918000", "113632.921000", "113632.924000", "113632.926000", "113632.931000", "113632.934000", "113632.937000", "113632.939000", "113632.942000", "113712.868000", "113712.871000", "113712.873000", "113712.876000", "113712.879000", "113712.881000", "113712.884000", "113712.887000", "113712.890000", "113712.892000", "113712.895000", "113712.898000", "113712.900000", "113712.903000", "113712.906000", "113712.909000", "113712.911000", "113712.914000", "113712.917000", "113712.920000", "113752.867000", "113752.870000", "113752.872000", "113752.875000", "113752.878000", "113752.881000", "113752.883000", "113752.886000", "113752.891000", "113752.894000", "113752.897000", "113752.900000", "113752.902000", "113752.905000", "113752.908000", "113752.910000", "113752.913000", "113752.916000", "113752.918000", "113752.921000", "113832.868000", "113832.871000", "113832.873000", "113832.876000", "113832.879000", "113832.882000", "113832.884000", "113832.887000", "113832.890000", "113832.893000", "113832.895000", "113832.898000", "113832.901000", "113832.904000", "113832.906000", "113832.909000", "113832.912000", "113832.914000", "113832.917000", "113832.920000", "113912.868000", "113912.871000", "113912.873000", "113912.876000", "113912.879000", "113912.882000", "113912.884000", "113912.887000", "113912.890000", "113912.893000", "113912.895000", "113912.898000", "113912.901000", "113912.903000", "113912.906000", "113912.909000", "113912.912000", "113912.914000", "113912.917000", "113912.920000", "113952.867000", "113952.870000", "113952.872000", "113952.875000", "113952.878000", "113952.881000", "113952.883000", "113952.886000", "113952.889000", "113952.892000", "113952.894000", "113952.897000", "113952.900000", "113952.903000", "113952.905000", "113952.908000", "113952.911000", "113952.914000", "113952.916000", "113952.919000", "114032.867000", "114032.870000", "114032.872000", "114032.875000", "114032.878000", "114032.881000", "114032.883000", "114032.886000", "114032.889000", "114032.892000", "114032.894000", "114032.897000", "114032.900000", "114032.916000", "114032.918000", "114032.921000", "114032.924000", "114032.927000", "114032.929000", "114032.932000", "114112.868000", "114112.871000", "114112.873000", "114112.876000", "114112.879000", "114112.882000", "114112.884000", "114112.887000", "114112.890000", "114112.893000", "114112.895000", "114112.898000", "114112.901000", "114112.904000", "114112.906000", "114112.909000", "114112.912000", "114112.915000", "114112.917000", "114112.920000", "114152.868000", "114152.871000", "114152.873000", "114152.876000", "114152.879000", "114152.882000", "114152.885000", "114152.887000", "114152.890000", "114152.893000", "114152.896000", "114152.898000", "114152.901000", "114152.904000", "114152.906000", "114152.909000", "114152.912000", "114152.915000", "114152.918000", "114152.921000", "114232.867000", "114232.870000", "114232.873000", "114232.875000", "114232.878000", "114232.881000", "114232.884000", "114232.886000", "114232.889000", "114232.892000", "114232.895000", "114232.897000", "114232.900000", "114232.903000", "114232.905000", "114232.908000", "114232.911000", "114232.914000", "114232.916000", "114232.919000", "114312.868000", "114312.871000", "114312.873000", "114312.876000", "114312.879000", "114312.882000", "114312.885000", "114312.887000", "114312.890000", "114312.893000", "114312.895000", "114312.898000", "114312.901000", "114312.904000", "114312.906000", "114312.909000", "114312.912000", "114312.915000", "114312.917000", "114312.920000", "114352.868000", "114352.871000", "114352.873000", "114352.876000", "114352.879000", "114352.882000", "114352.884000", "114352.887000", "114352.890000", "114352.893000", "114352.895000", "114352.898000", "114352.901000", "114352.904000", "114352.906000", "114352.909000", "114352.912000", "114352.915000", "114352.917000", "114352.920000", "114432.867000", "114432.870000", "114432.872000", "114432.875000", "114432.878000", "114432.881000", "114432.883000", "114432.886000", "114432.889000", "114432.892000", "114432.894000", "114432.897000", "114432.900000", "114432.903000", "114432.905000", "114432.908000", "114432.911000", "114432.914000", "114432.916000", "114432.919000", "114512.867000", "114512.870000", "114512.873000", "114512.875000", "114512.878000", "114512.881000", "114512.883000", "114512.886000", "114512.889000", "114512.892000", "114512.894000", "114512.897000", "114512.900000", "114512.903000", "114512.906000", "114512.908000", "114512.911000", "114512.914000", "114512.917000", "114512.919000", "114552.868000", "114552.871000", "114552.874000", "114552.876000", "114552.879000", "114552.882000", "114552.885000", "114552.887000", "114552.890000", "114552.893000", "114552.896000", "114552.898000", "114552.901000", "114552.904000", "114552.906000", "114552.909000", "114552.912000", "114552.915000", "114552.917000", "114552.920000", "114632.868000", "114632.871000", "114632.874000", "114632.876000", "114632.879000", "114632.882000", "114632.885000", "114632.887000", "114632.890000", "114632.893000", "114632.895000", "114632.898000", "114632.901000", "114632.904000", "114632.906000", "114632.909000", "114632.912000", "114632.915000", "114632.917000", "114632.920000", "114708.660000", "114708.663000", "114708.666000", "114708.668000", "114708.671000", "114708.674000", "114708.677000", "114708.680000", "114708.683000", "114708.685000", "114708.688000", "114708.696000", "114708.699000", "114708.702000", "114708.705000", "114708.708000", "114708.713000", "114708.718000"],
      "DataSetTrailingPadding": [
        "\u0000\u0000\u0000\u0000\u0000\u0000\u0000\u0000\u0000\u0000\u0000\u0000\u0000\u0000\u0000\u0000\u0000\u0000\u0000\u0000\u0000\u0000\u0000\u0000\u0000\u0000\u0000\u0000\u0000\u0000\u0000\u0000\u0000\u0000\u0000\u0000\u0000\u0000\u0000\u0000\u0000\u0000\u0000\u0000\u0000\u0000\u0000\u0000\u0000\u0000\u0000\u0000\u0000\u0000\u0000\u0000\u0000\u0000\u0000\u0000\u0000\u0000\u0000\u0000\u0000\u0000\u0000\u0000\u0000\u0000\u0000\u0000\u0000\u0000\u0000\u0000\u0000\u0000\u0000\u0000\u0000\u0000\u0000\u0000\u0000\u0000\u0000\u0000\u0000\u0000\u0000\u0000\u0000\u0000\u0000\u0000\u0000\u0000\u0000\u0000\u0000\u0000\u0000\u0000\u0000\u0000\u0000\u0000\u0000\u0000\u0000\u0000\u0000\u0000\u0000\u0000\u0000\u0000\u0000\u0000\u0000\u0000\u0000\u0000\u0000\u0000\u0000\u0000\u0000\u0000\u0000\u0000\u0000\u0000\u0000\u0000\u0000\u0000\u0000\u0000\u0000\u0000\u0000\u0000\u0000\u0000\u0000\u0000\u0000\u0000\u0000\u0000\u0000\u0000\u0000\u0000\u0000\u0000\u0000\u0000\u0000\u0000\u0000\u0000\u0000\u0000\u0000\u0000\u0000\u0000\u0000\u0000\u0000\u0000\u0000\u0000\u0000\u0000\u0000\u0000\u0000\u0000\u0000\u0000\u0000\u0000\u0000\u0000\u0000\u0000\u0000\u0000\u0000\u0000\u0000\u0000\u0000\u0000\u0000\u0000\u0000\u0000\u0000\u0000\u0000\u0000\u0000\u0000\u0000\u0000\u0000\u0000\u0000\u0000\u0000\u0000\u0000\u0000\u0000\u0000\u0000\u0000\u0000\u0000\u0000\u0000\u0000\u0000\u0000\u0000\u0000\u0000\u0000\u0000\u0000\u0000\u0000\u0000\u0000\u0000\u0000\u0000\u0000\u0000\u0000\u0000\u0000\u0000\u0000\u0000\u0000\u0000\u0000\u0000\u0000\u0000\u0000\u0000\u0000\u0000\u0000\u0000\u0000\u0000\u0000\u0000\u0000\u0000",
        "\u0000\u0000\u0000\u0000\u0000\u0000\u0000\u0000\u0000\u0000\u0000\u0000\u0000\u0000\u0000\u0000\u0000\u0000\u0000\u0000\u0000\u0000\u0000\u0000\u0000\u0000\u0000\u0000\u0000\u0000\u0000\u0000\u0000\u0000\u0000\u0000\u0000\u0000\u0000\u0000\u0000\u0000\u0000\u0000\u0000\u0000\u0000\u0000\u0000\u0000\u0000\u0000\u0000\u0000\u0000\u0000\u0000\u0000\u0000\u0000\u0000\u0000\u0000\u0000\u0000\u0000\u0000\u0000\u0000\u0000\u0000\u0000\u0000\u0000\u0000\u0000\u0000\u0000\u0000\u0000\u0000\u0000\u0000\u0000\u0000\u0000\u0000\u0000\u0000\u0000\u0000\u0000\u0000\u0000\u0000\u0000\u0000\u0000\u0000\u0000\u0000\u0000\u0000\u0000\u0000\u0000\u0000\u0000\u0000\u0000\u0000\u0000\u0000\u0000\u0000\u0000\u0000\u0000\u0000\u0000\u0000\u0000\u0000\u0000\u0000\u0000\u0000\u0000\u0000\u0000\u0000\u0000\u0000\u0000\u0000\u0000\u0000\u0000\u0000\u0000\u0000\u0000\u0000\u0000\u0000\u0000\u0000\u0000\u0000\u0000\u0000\u0000\u0000\u0000\u0000\u0000\u0000\u0000\u0000\u0000\u0000\u0000\u0000\u0000\u0000\u0000\u0000\u0000\u0000\u0000\u0000\u0000\u0000\u0000\u0000\u0000\u0000\u0000\u0000\u0000\u0000\u0000\u0000\u0000\u0000\u0000\u0000\u0000\u0000\u0000\u0000\u0000\u0000\u0000\u0000\u0000\u0000\u0000\u0000\u0000\u0000\u0000\u0000\u0000\u0000\u0000\u0000\u0000\u0000\u0000\u0000\u0000\u0000\u0000\u0000\u0000\u0000\u0000\u0000\u0000\u0000\u0000\u0000\u0000\u0000\u0000\u0000\u0000\u0000\u0000\u0000\u0000\u0000\u0000\u0000\u0000\u0000\u0000\u0000\u0000\u0000\u0000\u0000\u0000\u0000\u0000\u0000\u0000\u0000\u0000\u0000\u0000\u0000\u0000\u0000\u0000\u0000\u0000\u0000\u0000\u0000\u0000\u0000\u0000\u0000\u0000\u0000\u0000",
        "\u0000\u0000\u0000\u0000\u0000\u0000\u0000\u0000\u0000\u0000\u0000\u0000\u0000\u0000\u0000\u0000\u0000\u0000\u0000\u0000\u0000\u0000\u0000\u0000\u0000\u0000\u0000\u0000\u0000\u0000\u0000\u0000\u0000\u0000\u0000\u0000\u0000\u0000\u0000\u0000\u0000\u0000\u0000\u0000\u0000\u0000\u0000\u0000\u0000\u0000\u0000\u0000\u0000\u0000\u0000\u0000\u0000\u0000\u0000\u0000\u0000\u0000\u0000\u0000\u0000\u0000\u0000\u0000\u0000\u0000\u0000\u0000\u0000\u0000\u0000\u0000\u0000\u0000\u0000\u0000\u0000\u0000\u0000\u0000\u0000\u0000\u0000\u0000\u0000\u0000\u0000\u0000\u0000\u0000\u0000\u0000\u0000\u0000\u0000\u0000\u0000\u0000\u0000\u0000\u0000\u0000\u0000\u0000\u0000\u0000\u0000\u0000\u0000\u0000\u0000\u0000\u0000\u0000\u0000\u0000\u0000\u0000\u0000\u0000\u0000\u0000\u0000\u0000\u0000\u0000\u0000\u0000\u0000\u0000\u0000\u0000\u0000\u0000\u0000\u0000\u0000\u0000\u0000\u0000\u0000\u0000\u0000\u0000\u0000\u0000\u0000\u0000\u0000\u0000\u0000\u0000\u0000\u0000\u0000\u0000\u0000\u0000\u0000\u0000\u0000\u0000\u0000\u0000\u0000\u0000\u0000\u0000\u0000\u0000\u0000\u0000\u0000\u0000\u0000\u0000\u0000\u0000\u0000\u0000\u0000\u0000\u0000\u0000\u0000\u0000\u0000\u0000\u0000\u0000\u0000\u0000\u0000\u0000\u0000\u0000\u0000\u0000\u0000\u0000\u0000\u0000\u0000\u0000\u0000\u0000\u0000\u0000\u0000\u0000\u0000\u0000\u0000\u0000\u0000\u0000\u0000\u0000\u0000\u0000\u0000\u0000\u0000\u0000\u0000\u0000\u0000\u0000\u0000\u0000\u0000\u0000\u0000\u0000\u0000\u0000\u0000\u0000\u0000\u0000\u0000\u0000\u0000\u0000\u0000\u0000\u0000\u0000\u0000\u0000\u0000\u0000\u0000\u0000\u0000\u0000\u0000\u0000\u0000\u0000\u0000\u0000\u0000\u0000",
        "\u0000\u0000\u0000\u0000\u0000\u0000\u0000\u0000\u0000\u0000\u0000\u0000\u0000\u0000\u0000\u0000\u0000\u0000\u0000\u0000\u0000\u0000\u0000\u0000\u0000\u0000\u0000\u0000\u0000\u0000\u0000\u0000\u0000\u0000\u0000\u0000\u0000\u0000\u0000\u0000\u0000\u0000\u0000\u0000\u0000\u0000\u0000\u0000\u0000\u0000\u0000\u0000\u0000\u0000\u0000\u0000\u0000\u0000\u0000\u0000\u0000\u0000\u0000\u0000\u0000\u0000\u0000\u0000\u0000\u0000\u0000\u0000\u0000\u0000\u0000\u0000\u0000\u0000\u0000\u0000\u0000\u0000\u0000\u0000\u0000\u0000\u0000\u0000\u0000\u0000\u0000\u0000\u0000\u0000\u0000\u0000\u0000\u0000\u0000\u0000\u0000\u0000\u0000\u0000\u0000\u0000\u0000\u0000\u0000\u0000\u0000\u0000\u0000\u0000\u0000\u0000\u0000\u0000\u0000\u0000\u0000\u0000\u0000\u0000\u0000\u0000\u0000\u0000\u0000\u0000\u0000\u0000\u0000\u0000\u0000\u0000\u0000\u0000\u0000\u0000\u0000\u0000\u0000\u0000\u0000\u0000\u0000\u0000\u0000\u0000\u0000\u0000\u0000\u0000\u0000\u0000\u0000\u0000\u0000\u0000\u0000\u0000\u0000\u0000\u0000\u0000\u0000\u0000\u0000\u0000\u0000\u0000\u0000\u0000\u0000\u0000\u0000\u0000\u0000\u0000\u0000\u0000\u0000\u0000\u0000\u0000\u0000\u0000\u0000\u0000\u0000\u0000\u0000\u0000\u0000\u0000\u0000\u0000\u0000\u0000\u0000\u0000\u0000\u0000\u0000\u0000\u0000\u0000\u0000\u0000\u0000\u0000\u0000\u0000\u0000\u0000\u0000\u0000\u0000\u0000\u0000\u0000\u0000\u0000\u0000\u0000\u0000\u0000\u0000\u0000\u0000\u0000\u0000\u0000\u0000\u0000\u0000\u0000\u0000\u0000\u0000\u0000\u0000\u0000\u0000\u0000\u0000\u0000\u0000\u0000\u0000\u0000\u0000\u0000\u0000\u0000\u0000\u0000\u0000\u0000\u0000\u0000\u0000\u0000\u0000\u0000\u0000\u0000",
        "\u0000\u0000\u0000\u0000\u0000\u0000\u0000\u0000\u0000\u0000\u0000\u0000\u0000\u0000\u0000\u0000\u0000\u0000\u0000\u0000\u0000\u0000\u0000\u0000\u0000\u0000\u0000\u0000\u0000\u0000\u0000\u0000\u0000\u0000\u0000\u0000\u0000\u0000\u0000\u0000\u0000\u0000\u0000\u0000\u0000\u0000\u0000\u0000\u0000\u0000\u0000\u0000\u0000\u0000\u0000\u0000\u0000\u0000\u0000\u0000\u0000\u0000\u0000\u0000\u0000\u0000\u0000\u0000\u0000\u0000\u0000\u0000\u0000\u0000\u0000\u0000\u0000\u0000\u0000\u0000\u0000\u0000\u0000\u0000\u0000\u0000\u0000\u0000\u0000\u0000\u0000\u0000\u0000\u0000\u0000\u0000\u0000\u0000\u0000\u0000\u0000\u0000\u0000\u0000\u0000\u0000\u0000\u0000\u0000\u0000\u0000\u0000\u0000\u0000\u0000\u0000\u0000\u0000\u0000\u0000\u0000\u0000\u0000\u0000\u0000\u0000\u0000\u0000\u0000\u0000\u0000\u0000\u0000\u0000\u0000\u0000\u0000\u0000\u0000\u0000\u0000\u0000\u0000\u0000\u0000\u0000\u0000\u0000\u0000\u0000\u0000\u0000\u0000\u0000\u0000\u0000\u0000\u0000\u0000\u0000\u0000\u0000\u0000\u0000\u0000\u0000\u0000\u0000\u0000\u0000\u0000\u0000\u0000\u0000\u0000\u0000\u0000\u0000\u0000\u0000\u0000\u0000\u0000\u0000\u0000\u0000\u0000\u0000\u0000\u0000\u0000\u0000\u0000\u0000\u0000\u0000\u0000\u0000\u0000\u0000\u0000\u0000\u0000\u0000\u0000\u0000\u0000\u0000\u0000\u0000\u0000\u0000\u0000\u0000\u0000\u0000\u0000\u0000\u0000\u0000\u0000\u0000\u0000\u0000\u0000\u0000\u0000\u0000\u0000\u0000\u0000\u0000\u0000\u0000\u0000\u0000\u0000\u0000\u0000\u0000\u0000\u0000\u0000\u0000\u0000\u0000\u0000\u0000\u0000\u0000\u0000\u0000\u0000\u0000\u0000\u0000\u0000\u0000\u0000\u0000\u0000\u0000\u0000\u0000\u0000\u0000",
        "\u0000\u0000\u0000\u0000\u0000\u0000\u0000\u0000\u0000\u0000\u0000\u0000\u0000\u0000\u0000\u0000\u0000\u0000\u0000\u0000\u0000\u0000\u0000\u0000\u0000\u0000\u0000\u0000\u0000\u0000\u0000\u0000\u0000\u0000\u0000\u0000\u0000\u0000\u0000\u0000\u0000\u0000\u0000\u0000\u0000\u0000\u0000\u0000\u0000\u0000\u0000\u0000\u0000\u0000\u0000\u0000\u0000\u0000\u0000\u0000\u0000\u0000\u0000\u0000\u0000\u0000\u0000\u0000\u0000\u0000\u0000\u0000\u0000\u0000\u0000\u0000\u0000\u0000\u0000\u0000\u0000\u0000\u0000\u0000\u0000\u0000\u0000\u0000\u0000\u0000\u0000\u0000\u0000\u0000\u0000\u0000\u0000\u0000\u0000\u0000\u0000\u0000\u0000\u0000\u0000\u0000\u0000\u0000\u0000\u0000\u0000\u0000\u0000\u0000\u0000\u0000\u0000\u0000\u0000\u0000\u0000\u0000\u0000\u0000\u0000\u0000\u0000\u0000\u0000\u0000\u0000\u0000\u0000\u0000\u0000\u0000\u0000\u0000\u0000\u0000\u0000\u0000\u0000\u0000\u0000\u0000\u0000\u0000\u0000\u0000\u0000\u0000\u0000\u0000\u0000\u0000\u0000\u0000\u0000\u0000\u0000\u0000\u0000\u0000\u0000\u0000\u0000\u0000\u0000\u0000\u0000\u0000\u0000\u0000\u0000\u0000\u0000\u0000\u0000\u0000\u0000\u0000\u0000\u0000\u0000\u0000\u0000\u0000\u0000\u0000\u0000\u0000\u0000\u0000\u0000\u0000\u0000\u0000\u0000\u0000\u0000\u0000\u0000\u0000\u0000\u0000\u0000\u0000\u0000\u0000\u0000\u0000\u0000\u0000\u0000\u0000\u0000\u0000\u0000\u0000\u0000\u0000\u0000\u0000\u0000\u0000\u0000\u0000\u0000\u0000\u0000\u0000\u0000\u0000\u0000\u0000\u0000\u0000\u0000\u0000\u0000\u0000\u0000\u0000\u0000\u0000\u0000\u0000\u0000\u0000\u0000\u0000\u0000\u0000\u0000\u0000\u0000\u0000\u0000\u0000\u0000\u0000\u0000\u0000\u0000\u0000",
        "\u0000\u0000\u0000\u0000\u0000\u0000\u0000\u0000\u0000\u0000\u0000\u0000\u0000\u0000\u0000\u0000\u0000\u0000\u0000\u0000\u0000\u0000\u0000\u0000\u0000\u0000\u0000\u0000\u0000\u0000\u0000\u0000\u0000\u0000\u0000\u0000\u0000\u0000\u0000\u0000\u0000\u0000\u0000\u0000\u0000\u0000\u0000\u0000\u0000\u0000\u0000\u0000\u0000\u0000\u0000\u0000\u0000\u0000\u0000\u0000\u0000\u0000\u0000\u0000\u0000\u0000\u0000\u0000\u0000\u0000\u0000\u0000\u0000\u0000\u0000\u0000\u0000\u0000\u0000\u0000\u0000\u0000\u0000\u0000\u0000\u0000\u0000\u0000\u0000\u0000\u0000\u0000\u0000\u0000\u0000\u0000\u0000\u0000\u0000\u0000\u0000\u0000\u0000\u0000\u0000\u0000\u0000\u0000\u0000\u0000\u0000\u0000\u0000\u0000\u0000\u0000\u0000\u0000\u0000\u0000\u0000\u0000\u0000\u0000\u0000\u0000\u0000\u0000\u0000\u0000\u0000\u0000\u0000\u0000\u0000\u0000\u0000\u0000\u0000\u0000\u0000\u0000\u0000\u0000\u0000\u0000\u0000\u0000\u0000\u0000\u0000\u0000\u0000\u0000\u0000\u0000\u0000\u0000\u0000\u0000\u0000\u0000\u0000\u0000\u0000\u0000\u0000\u0000\u0000\u0000\u0000\u0000\u0000\u0000\u0000\u0000\u0000\u0000\u0000\u0000\u0000\u0000\u0000\u0000\u0000\u0000\u0000\u0000\u0000\u0000\u0000\u0000\u0000\u0000\u0000\u0000\u0000\u0000\u0000\u0000\u0000\u0000\u0000\u0000\u0000\u0000\u0000\u0000\u0000\u0000\u0000\u0000\u0000\u0000\u0000\u0000\u0000\u0000\u0000\u0000\u0000\u0000\u0000\u0000\u0000\u0000\u0000\u0000\u0000\u0000\u0000\u0000\u0000\u0000\u0000\u0000\u0000\u0000\u0000\u0000\u0000\u0000\u0000\u0000\u0000\u0000\u0000\u0000\u0000\u0000\u0000\u0000\u0000\u0000\u0000\u0000\u0000\u0000\u0000\u0000\u0000\u0000\u0000\u0000\u0000\u0000",
