{
  "AcquisitionMatrixPE": 70,
  "AcquisitionNumber": 1,
  "AcquisitionTime": "09:41:33.647500",
  "BandwidthPerPixelPhaseEncode": 51.948,
  "BaseResolution": 70,
  "BodyPartExamined": "HEAD",
  "CoilCombinationMethod": "Sum of Squares",
  "ConsistencyInfo": "N4_VE11C_LATEST_20160120",
  "ConversionSoftware": "dcm2niix",
  "ConversionSoftwareVersion": "v1.0.20220720",
  "DerivedVendorReportedEchoSpacing": 0.000550001,
  "DeviceSerialNumber": "66061",
  "DwellTime": 3.3e-06,
  "EchoTime": 0.022,
  "EchoTrainLength": 35,
  "EffectiveEchoSpacing": 0.000275,
  "FlipAngle": 90,
  "HeudiconvVersion": "1.1.1",
  "ImageOrientationPatientDICOM": [0.999751, 0.005304, 0.0216946, -0.00122139, 0.982921, -0.184024],
  "ImageOrientationText": "Tra>Cor(-10.6)>Sag(1.3)",
  "ImageType": [
    "ORIGINAL",
    "PRIMARY",
    "M",
    "ND",
    "NORM",
    "MOSAIC"
],
  "ImagingFrequency": 123.254,
  "InPlanePhaseEncodingDirectionDICOM": "COL",
  "InstitutionAddress": "Street StreetNo,City/1c4204/,District,KR,ZIP",
  "InstitutionName": "SKKU",
  "InstitutionalDepartmentName": "Department",
  "MRAcquisitionType": "2D",
  "MagneticFieldStrength": 3,
  "Manufacturer": "Siemens",
  "ManufacturersModelName": "Prisma",
  "MatrixCoilMode": "GRAPPA",
  "Modality": "MR",
  "NonlinearGradientCorrection": false,
  "ParallelReductionFactorInPlane": 2,
  "PartialFourier": 1,
  "PatientPosition": "HFS",
  "PercentPhaseFOV": 100,
  "PercentSampling": 100,
  "PhaseEncodingDirection": "j-",
  "PhaseEncodingSteps": 70,
  "PhaseResolution": 1,
  "PixelBandwidth": 2165,
  "ProcedureStepDescription": "Head^PI:Others",
  "ProtocolName": "BOLD_ep2d_3x3x3_dimension2",
  "PulseSequenceDetails": "%SiemensSeq%\\ep2d_pace",
  "ReceiveCoilActiveElements": "HC1-7;NC1",
  "ReceiveCoilName": "HeadNeck_64",
  "ReconMatrixPE": 70,
  "RefLinesPE": 24,
  "RepetitionTime": 2,
  "SAR": 0.132222,
  "ScanOptions": "FS",
  "ScanningSequence": "EP",
  "SequenceName": "*epfid2d1_70",
  "SequenceVariant": "SK",
  "SeriesDescription": "BOLD_ep2d_3x3x3_dimension2",
  "SeriesNumber": 9,
  "ShimSetting": [5046, 3723, 4473, 287, -48, 30, -38, 48],
  "SliceThickness": 3,
  "SliceTiming": [0.99, 0, 1.035, 0.045, 1.0825, 0.0925, 1.13, 0.14, 1.1775, 0.1875, 1.225, 0.235, 1.2725, 0.2825, 1.32, 0.33, 1.365, 0.375, 1.4125, 0.4225, 1.46, 0.47, 1.5075, 0.5175, 1.555, 0.565, 1.6025, 0.6125, 1.65, 0.66, 1.695, 0.705, 1.7425, 0.7525, 1.79, 0.8, 1.8375, 0.8475, 1.885, 0.895, 1.9325, 0.9425],
  "SoftwareVersions": "syngo MR E11",
  "SpacingBetweenSlices": 3,
  "StationName": "AWP66061",
  "TaskName": "dimension",
  "TotalReadoutTime": 0.018975,
  "TxRefAmp": 248.349,
  "dcmmeta_affine": [
    [-2.9992516040802, -0.0036641699261963367, 0.06690052896738052, 105.55685424804688],
    [-0.015912000089883804, 2.948763132095337, -0.5518540740013123, -84.76774597167969],
    [0.06508390605449677, 0.5520712733268738, 2.948047161102295, -80.19402313232422],
    [0.0, 0.0, 0.0, 1.0]
],
  "dcmmeta_reorient_transform": [
    [0.0, -1.0, 0.0, 69.0],
    [1.0, 0.0, 0.0, 0.0],
    [0.0, 0.0, -1.0, 41.0],
    [0.0, 0.0, 0.0, 1.0]
],
  "dcmmeta_shape": [70, 70, 42, 437],
  "dcmmeta_slice_dim": 2,
  "dcmmeta_version": 0.6,
  "global": {
    "const": {
      "AcquisitionMatrix": [70, 0, 0, 70],
      "AngioFlag": "N",
      "BitsAllocated": 16,
      "BitsStored": 12,
      "BodyPartExamined": "HEAD",
      "Columns": 490,
      "EchoNumbers": 1,
      "EchoTime": 22.0,
      "EchoTrainLength": 35,
      "FlipAngle": 90.0,
      "HighBit": 11,
      "ImageOrientationPatient": [0.9997505740928, 0.00530400020139, 0.02169463488946, -0.0012213899633, 0.98292103834598, -0.1840237500526],
      "ImagePositionPatient": [-737.12033106489, -718.65266336878, 181.03616951185],
      "ImageType": [
        "ORIGINAL",
        "PRIMARY",
        "M",
        "ND",
        "NORM",
        "MOSAIC"
],
      "ImagedNucleus": "1H",
      "ImagingFrequency": 123.254426,
      "InPlanePhaseEncodingDirection": "COL",
      "MRAcquisitionType": "2D",
      "MagneticFieldStrength": 3.0,
      "Manufacturer": "SIEMENS",
      "ManufacturerModelName": "Prisma",
      "Modality": "MR",
      "NumberOfAverages": 1.0,
      "NumberOfPhaseEncodingSteps": 70,
      "PercentPhaseFieldOfView": 100.0,
      "PercentSampling": 100.0,
      "PerformedProcedureStepStartTime": "084954.633000",
      "PhotometricInterpretation": "MONOCHROME2",
      "PixelBandwidth": 2165.0,
      "PixelRepresentation": 0,
      "PixelSpacing": [3.0, 3.0],
      "ProtocolName": "BOLD_ep2d_3x3x3_dimension2",
      "RepetitionTime": 2000.0,
      "Rows": 490,
      "SAR": 0.13222220867224,
      "SamplesPerPixel": 1,
      "ScanOptions": "FS",
      "ScanningSequence": "EP",
      "SequenceName": "*epfid2d1_70",
      "SequenceVariant": "SK",
      "SeriesDescription": "BOLD_ep2d_3x3x3_dimension2",
      "SeriesNumber": 9,
      "SeriesTime": "094231.614000",
      "SliceLocation": 62.141831872329,
      "SliceThickness": 3.0,
      "SmallestImagePixelValue": 0,
      "SoftwareVersions": "syngo MR E11",
      "SpacingBetweenSlices": 3.0000000270303,
      "SpecificCharacterSet": "ISO_IR 100",
      "StudyID": "2",
      "StudyTime": "084954.591000",
      "TransmitCoilName": "Body",
      "VariableFlipAngleFlag": "N",
      "WindowCenterWidthExplanation": "Algo1",
      "dBdt": 0.0},
    "slices": {}
  },
  "time": {
    "samples": {
      "AcquisitionNumber": [1, 2, 3, 4, 5, 6, 7, 8, 9, 10, 11, 12, 13, 14, 15, 16, 17, 18, 19, 20, 21, 22, 23, 24, 25, 26, 27, 28, 29, 30, 31, 32, 33, 34, 35, 36, 37, 38, 39, 40, 41, 42, 43, 44, 45, 46, 47, 48, 49, 50, 51, 52, 53, 54, 55, 56, 57, 58, 59, 60, 61, 62, 63, 64, 65, 66, 67, 68, 69, 70, 71, 72, 73, 74, 75, 76, 77, 78, 79, 80, 81, 82, 83, 84, 85, 86, 87, 88, 89, 90, 91, 92, 93, 94, 95, 96, 97, 98, 99, 100, 101, 102, 103, 104, 105, 106, 107, 108, 109, 110, 111, 112, 113, 114, 115, 116, 117, 118, 119, 120, 121, 122, 123, 124, 125, 126, 127, 128, 129, 130, 131, 132, 133, 134, 135, 136, 137, 138, 139, 140, 141, 142, 143, 144, 145, 146, 147, 148, 149, 150, 151, 152, 153, 154, 155, 156, 157, 158, 159, 160, 161, 162, 163, 164, 165, 166, 167, 168, 169, 170, 171, 172, 173, 174, 175, 176, 177, 178, 179, 180, 181, 182, 183, 184, 185, 186, 187, 188, 189, 190, 191, 192, 193, 194, 195, 196, 197, 198, 199, 200, 201, 202, 203, 204, 205, 206, 207, 208, 209, 210, 211, 212, 213, 214, 215, 216, 217, 218, 219, 220, 221, 222, 223, 224, 225, 226, 227, 228, 229, 230, 231, 232, 233, 234, 235, 236, 237, 238, 239, 240, 241, 242, 243, 244, 245, 246, 247, 248, 249, 250, 251, 252, 253, 254, 255, 256, 257, 258, 259, 260, 261, 262, 263, 264, 265, 266, 267, 268, 269, 270, 271, 272, 273, 274, 275, 276, 277, 278, 279, 280, 281, 282, 283, 284, 285, 286, 287, 288, 289, 290, 291, 292, 293, 294, 295, 296, 297, 298, 299, 300, 301, 302, 303, 304, 305, 306, 307, 308, 309, 310, 311, 312, 313, 314, 315, 316, 317, 318, 319, 320, 321, 322, 323, 324, 325, 326, 327, 328, 329, 330, 331, 332, 333, 334, 335, 336, 337, 338, 339, 340, 341, 342, 343, 344, 345, 346, 347, 348, 349, 350, 351, 352, 353, 354, 355, 356, 357, 358, 359, 360, 361, 362, 363, 364, 365, 366, 367, 368, 369, 370, 371, 372, 373, 374, 375, 376, 377, 378, 379, 380, 381, 382, 383, 384, 385, 386, 387, 388, 389, 390, 391, 392, 393, 394, 395, 396, 397, 398, 399, 400, 401, 402, 403, 404, 405, 406, 407, 408, 409, 410, 411, 412, 413, 414, 415, 416, 417, 418, 419, 420, 421, 422, 423, 424, 425, 426, 427, 428, 429, 430, 431, 432, 433, 434, 435, 436, 437],
      "AcquisitionTime": ["094133.647500", "094135.647500", "094137.647500", "094139.647500", "094141.647500", "094143.647500", "094145.647500", "094147.647500", "094149.647500", "094151.647500", "094153.647500", "094155.647500", "094157.647500", "094159.647500", "094201.647500", "094203.647500", "094205.647500", "094207.647500", "094209.647500", "094211.647500", "094213.647500", "094215.647500", "094217.647500", "094219.647500", "094221.647500", "094223.647500", "094225.647500", "094227.647500", "094229.647500", "094231.647500", "094233.647500", "094235.647500", "094237.647500", "094239.647500", "094241.647500", "094243.647500", "094245.647500", "094247.647500", "094249.647500", "094251.647500", "094253.647500", "094255.647500", "094257.647500", "094259.647500", "094301.647500", "094303.647500", "094305.647500", "094307.647500", "094309.647500", "094311.647500", "094313.647500", "094315.647500", "094317.647500", "094319.647500", "094321.647500", "094323.647500", "094325.647500", "094327.647500", "094329.647500", "094331.647500", "094333.647500", "094335.647500", "094337.647500", "094339.647500", "094341.647500", "094343.647500", "094345.647500", "094347.647500", "094349.647500", "094351.647500", "094353.647500", "094355.647500", "094357.647500", "094359.647500", "094401.647500", "094403.647500", "094405.647500", "094407.647500", "094409.647500", "094411.647500", "094413.647500", "094415.647500", "094417.647500", "094419.647500", "094421.647500", "094423.647500", "094425.647500", "094427.647500", "094429.647500", "094431.647500", "094433.647500", "094435.647500", "094437.647500", "094439.647500", "094441.647500", "094443.647500", "094445.647500", "094447.647500", "094449.647500", "094451.647500", "094453.647500", "094455.647500", "094457.647500", "094459.647500", "094501.647500", "094503.647500", "094505.647500", "094507.647500", "094509.647500", "094511.647500", "094513.647500", "094515.647500", "094517.647500", "094519.647500", "094521.647500", "094523.647500", "094525.647500", "094527.647500", "094529.647500", "094531.647500", "094533.647500", "094535.647500", "094537.647500", "094539.647500", "094541.647500", "094543.647500", "094545.647500", "094547.647500", "094549.647500", "094551.647500", "094553.647500", "094555.647500", "094557.647500", "094559.647500", "094601.647500", "094603.647500", "094605.647500", "094607.647500", "094609.647500", "094611.647500", "094613.647500", "094615.647500", "094617.647500", "094619.647500", "094621.647500", "094623.647500", "094625.647500", "094627.647500", "094629.647500", "094631.647500", "094633.647500", "094635.647500", "094637.647500", "094639.647500", "094641.647500", "094643.647500", "094645.647500", "094647.647500", "094649.647500", "094651.647500", "094653.647500", "094655.647500", "094657.647500", "094659.647500", "094701.647500", "094703.647500", "094705.647500", "094707.647500", "094709.647500", "094711.647500", "094713.647500", "094715.647500", "094717.647500", "094719.647500", "094721.647500", "094723.647500", "094725.647500", "094727.647500", "094729.647500", "094731.647500", "094733.647500", "094735.647500", "094737.647500", "094739.647500", "094741.647500", "094743.647500", "094745.647500", "094747.647500", "094749.647500", "094751.647500", "094753.647500", "094755.647500", "094757.647500", "094759.647500", "094801.647500", "094803.647500", "094805.647500", "094807.647500", "094809.647500", "094811.647500", "094813.647500", "094815.647500", "094817.647500", "094819.647500", "094821.647500", "094823.647500", "094825.647500", "094827.647500", "094829.647500", "094831.647500", "094833.647500", "094835.647500", "094837.647500", "094839.647500", "094841.647500", "094843.647500", "094845.647500", "094847.647500", "094849.647500", "094851.647500", "094853.647500", "094855.647500", "094857.647500", "094859.647500", "094901.647500", "094903.647500", "094905.647500", "094907.647500", "094909.647500", "094911.647500", "094913.647500", "094915.647500", "094917.647500", "094919.647500", "094921.647500", "094923.647500", "094925.647500", "094927.647500", "094929.647500", "094931.647500", "094933.647500", "094935.647500", "094937.647500", "094939.647500", "094941.647500", "094943.647500", "094945.647500", "094947.647500", "094949.647500", "094951.647500", "094953.647500", "094955.647500", "094957.647500", "094959.647500", "095001.647500", "095003.647500", "095005.647500", "095007.647500", "095009.647500", "095011.647500", "095013.647500", "095015.647500", "095017.647500", "095019.647500", "095021.647500", "095023.647500", "095025.647500", "095027.647500", "095029.647500", "095031.647500", "095033.647500", "095035.647500", "095037.647500", "095039.647500", "095041.647500", "095043.647500", "095045.647500", "095047.647500", "095049.647500", "095051.647500", "095053.647500", "095055.647500", "095057.647500", "095059.647500", "095101.647500", "095103.647500", "095105.647500", "095107.647500", "095109.647500", "095111.647500", "095113.647500", "095115.647500", "095117.647500", "095119.647500", "095121.647500", "095123.647500", "095125.647500", "095127.647500", "095129.647500", "095131.647500", "095133.647500", "095135.647500", "095137.647500", "095139.647500", "095141.647500", "095143.647500", "095145.647500", "095147.647500", "095149.647500", "095151.647500", "095153.647500", "095155.647500", "095157.647500", "095159.647500", "095201.647500", "095203.647500", "095205.647500", "095207.647500", "095209.647500", "095211.647500", "095213.647500", "095215.647500", "095217.647500", "095219.647500", "095221.647500", "095223.647500", "095225.647500", "095227.647500", "095229.647500", "095231.647500", "095233.647500", "095235.647500", "095237.647500", "095239.647500", "095241.647500", "095243.647500", "095245.647500", "095247.647500", "095249.647500", "095251.647500", "095253.647500", "095255.647500", "095257.647500", "095259.647500", "095301.647500", "095303.647500", "095305.647500", "095307.647500", "095309.647500", "095311.647500", "095313.647500", "095315.647500", "095317.647500", "095319.647500", "095321.647500", "095323.647500", "095325.647500", "095327.647500", "095329.647500", "095331.647500", "095333.647500", "095335.647500", "095337.647500", "095339.647500", "095341.647500", "095343.647500", "095345.647500", "095347.647500", "095349.647500", "095351.647500", "095353.647500", "095355.647500", "095357.647500", "095359.647500", "095401.647500", "095403.647500", "095405.647500", "095407.647500", "095409.647500", "095411.647500", "095413.647500", "095415.647500", "095417.647500", "095419.647500", "095421.647500", "095423.647500", "095425.647500", "095427.647500", "095429.647500", "095431.647500", "095433.647500", "095435.647500", "095437.647500", "095439.647500", "095441.647500", "095443.647500", "095445.647500", "095447.647500", "095449.647500", "095451.647500", "095453.647500", "095455.647500", "095457.647500", "095459.647500", "095501.647500", "095503.647500", "095505.647500", "095507.647500", "095509.647500", "095511.647500", "095513.647500", "095515.647500", "095517.647500", "095519.647500", "095521.647500", "095523.647500", "095525.647500", "095527.647500", "095529.647500", "095531.647500", "095533.647500", "095535.647500", "095537.647500", "095539.647500", "095541.647500", "095543.647500", "095545.647500", "095547.647500", "095549.647500", "095551.647500", "095553.647500", "095555.647500", "095557.647500", "095559.647500", "095601.647500", "095603.647500", "095605.647500"],
      "ContentTime": ["094231.618000", "094231.629000", "094231.632000", "094231.635000", "094231.637000", "094231.640000", "094231.643000", "094231.646000", "094231.648000", "094231.651000", "094231.660000", "094231.669000", "094231.671000", "094231.674000", "094231.677000", "094231.680000", "094231.682000", "094231.685000", "094231.688000", "094231.691000", "094231.694000", "094231.696000", "094231.699000", "094231.702000", "094231.705000", "094231.707000", "094231.710000", "094231.713000", "094231.716000", "094311.613000", "094311.616000", "094311.623000", "094311.626000", "094311.628000", "094311.631000", "094311.634000", "094311.637000", "094311.640000", "094311.642000", "094311.645000", "094311.648000", "094311.651000", "094311.653000", "094311.656000", "094311.659000", "094311.662000", "094311.665000", "094311.667000", "094311.670000", "094351.613000", "094351.616000", "094351.618000", "094351.621000", "094351.624000", "094351.627000", "094351.630000", "094351.632000", "094351.635000", "094351.638000", "094351.641000", "094351.643000", "094351.646000", "094351.649000", "094351.652000", "094351.661000", "094351.663000", "094351.666000", "094351.669000", "094351.672000", "094431.613000", "094431.616000", "094431.618000", "094431.621000", "094431.624000", "094431.627000", "094431.629000", "094431.632000", "094431.635000", "094431.638000", "094431.641000", "094431.646000", "094431.649000", "094431.652000", "094431.655000", "094431.657000", "094431.660000", "094431.663000", "094431.666000", "094431.668000", "094511.613000", "094511.616000", "094511.618000", "094511.621000", "094511.624000", "094511.627000", "094511.630000", "094511.632000", "094511.635000", "094511.638000", "094511.641000", "094511.643000", "094511.646000", "094511.665000", "094511.667000", "094511.670000", "094511.673000", "094511.676000", "094511.679000", "094511.681000", "094551.612000", "094551.615000", "094551.617000", "094551.620000", "094551.623000", "094551.626000", "094551.629000", "094551.631000", "094551.634000", "094551.637000", "094551.640000", "094551.643000", "094551.646000", "094551.649000", "094551.651000", "094551.654000", "094551.657000", "094551.660000", "094551.662000", "094551.665000", "094631.613000", "094631.616000", "094631.618000", "094631.621000", "094631.624000", "094631.627000", "094631.630000", "094631.632000", "094631.635000", "094631.638000", "094631.641000", "094631.644000", "094631.647000", "094631.649000", "094631.652000", "094631.655000", "094631.658000", "094631.661000", "094631.663000", "094631.666000", "094711.613000", "094711.616000", "094711.619000", "094711.621000", "094711.624000", "094711.627000", "094711.630000", "094711.638000", "094711.641000", "094711.644000", "094711.647000", "094711.649000", "094711.652000", "094711.655000", "094711.658000", "094711.661000", "094711.664000", "094711.666000", "094711.669000", "094711.672000", "094751.613000", "094751.616000", "094751.618000", "094751.621000", "094751.624000", "094751.627000", "094751.629000", "094751.632000", "094751.635000", "094751.638000", "094751.643000", "094751.646000", "094751.649000", "094751.651000", "094751.654000", "094751.657000", "094751.660000", "094751.662000", "094751.665000", "094751.668000", "094831.613000", "094831.616000", "094831.619000", "094831.621000", "094831.624000", "094831.627000", "094831.630000", "094831.633000", "094831.636000", "094831.638000", "094831.641000", "094831.644000", "094831.647000", "094831.650000", "094831.652000", "094831.655000", "094831.658000", "094831.661000", "094831.663000", "094831.666000", "094911.613000", "094911.616000", "094911.618000", "094911.621000", "094911.624000", "094911.627000", "094911.630000", "094911.633000", "094911.636000", "094911.638000", "094911.641000", "094911.644000", "094911.647000", "094911.650000", "094911.653000", "094911.655000", "094911.658000", "094911.661000", "094911.664000", "094911.667000", "094951.613000", "094951.616000", "094951.619000", "094951.621000", "094951.624000", "094951.627000", "094951.630000", "094951.633000", "094951.636000", "094951.638000", "094951.641000", "094951.644000", "094951.647000", "094951.650000", "094951.652000", "094951.655000", "094951.658000", "094951.661000", "094951.664000", "094951.666000", "095031.612000", "095031.615000", "095031.618000", "095031.620000", "095031.623000", "095031.626000", "095031.629000", "095031.632000", "095031.635000", "095031.637000", "095031.640000", "095031.643000", "095031.646000", "095031.648000", "095031.651000", "095031.654000", "095031.657000", "095031.659000", "095031.662000", "095031.665000", "095111.613000", "095111.616000", "095111.618000", "095111.622000", "095111.624000", "095111.627000", "095111.630000", "095111.633000", "095111.636000", "095111.638000", "095111.641000", "095111.644000", "095111.647000", "095111.650000", "095111.653000", "095111.655000", "095111.658000", "095111.661000", "095111.664000", "095111.667000", "095151.613000", "095151.616000", "095151.618000", "095151.621000", "095151.624000", "095151.627000", "095151.630000", "095151.633000", "095151.635000", "095151.638000", "095151.641000", "095151.644000", "095151.647000", "095151.649000", "095151.652000", "095151.655000", "095151.658000", "095151.661000", "095151.663000", "095151.666000", "095231.613000", "095231.616000", "095231.618000", "095231.621000", "095231.624000", "095231.627000", "095231.633000", "095231.636000", "095231.639000", "095231.642000", "095231.645000", "095231.647000", "095231.650000", "095231.653000", "095231.667000", "095231.670000", "095231.672000", "095231.675000", "095231.678000", "095231.681000", "095311.613000", "095311.619000", "095311.622000", "095311.625000", "095311.628000", "095311.631000", "095311.634000", "095311.636000", "095311.639000", "095311.642000", "095311.645000", "095311.654000", "095311.657000", "095311.660000", "095311.663000", "095311.665000", "095311.668000", "095311.671000", "095311.674000", "095311.677000", "095351.613000", "095351.616000", "095351.618000", "095351.621000", "095351.624000", "095351.627000", "095351.630000", "095351.632000", "095351.636000", "095351.638000", "095351.641000", "095351.644000", "095351.647000", "095351.650000", "095351.652000", "095351.655000", "095351.658000", "095351.661000", "095351.663000", "095351.666000", "095431.613000", "095431.616000", "095431.619000", "095431.621000", "095431.624000", "095431.627000", "095431.630000", "095431.633000", "095431.636000", "095431.638000", "095431.641000", "095431.644000", "095431.647000", "095431.650000", "095431.652000", "095431.655000", "095431.658000", "095431.661000", "095431.664000", "095431.666000", "095511.612000", "095511.615000", "095511.618000", "095511.620000", "095511.623000", "095511.626000", "095511.629000", "095511.632000", "095511.635000", "095511.637000", "095511.640000", "095511.643000", "095511.646000", "095511.648000", "095511.651000", "095511.654000", "095511.657000", "095511.660000", "095511.662000", "095511.665000", "095551.613000", "095551.619000", "095551.621000", "095551.624000", "095551.627000", "095551.630000", "095551.633000", "095551.635000", "095551.638000", "095551.641000", "095551.644000", "095551.647000", "095551.650000", "095551.652000", "095551.655000", "095551.658000", "095551.661000", "095551.664000", "095551.667000", "095551.669000", "095607.141000", "095607.144000", "095607.147000", "095607.150000", "095607.159000", "095607.162000", "095607.164000", "095607.167000"],
      "DataSetTrailingPadding": [
        "\u0000\u0000\u0000\u0000\u0000\u0000\u0000\u0000\u0000\u0000\u0000\u0000\u0000\u0000\u0000\u0000\u0000\u0000\u0000\u0000\u0000\u0000\u0000\u0000\u0000\u0000\u0000\u0000\u0000\u0000\u0000\u0000\u0000\u0000\u0000\u0000\u0000\u0000\u0000\u0000\u0000\u0000\u0000\u0000\u0000\u0000\u0000\u0000\u0000\u0000\u0000\u0000\u0000\u0000\u0000\u0000\u0000\u0000\u0000\u0000\u0000\u0000\u0000\u0000\u0000\u0000\u0000\u0000\u0000\u0000\u0000\u0000\u0000\u0000\u0000\u0000\u0000\u0000\u0000\u0000\u0000\u0000\u0000\u0000\u0000\u0000\u0000\u0000\u0000\u0000\u0000\u0000\u0000\u0000\u0000\u0000\u0000\u0000\u0000\u0000\u0000\u0000\u0000\u0000\u0000\u0000\u0000\u0000\u0000\u0000\u0000\u0000\u0000\u0000\u0000\u0000\u0000\u0000\u0000\u0000\u0000\u0000\u0000\u0000\u0000\u0000\u0000\u0000\u0000\u0000\u0000\u0000\u0000\u0000\u0000\u0000\u0000\u0000\u0000\u0000\u0000\u0000\u0000\u0000\u0000\u0000\u0000\u0000\u0000\u0000\u0000\u0000\u0000\u0000\u0000\u0000\u0000\u0000\u0000\u0000\u0000\u0000\u0000\u0000\u0000\u0000\u0000\u0000\u0000\u0000\u0000\u0000\u0000\u0000\u0000\u0000\u0000\u0000\u0000\u0000\u0000\u0000\u0000\u0000\u0000\u0000\u0000\u0000\u0000\u0000\u0000\u0000\u0000\u0000\u0000\u0000\u0000\u0000\u0000\u0000\u0000\u0000\u0000\u0000\u0000\u0000\u0000\u0000\u0000\u0000\u0000\u0000\u0000\u0000\u0000\u0000\u0000\u0000\u0000\u0000\u0000\u0000\u0000\u0000\u0000\u0000\u0000\u0000\u0000\u0000\u0000\u0000\u0000\u0000\u0000\u0000\u0000\u0000\u0000\u0000\u0000\u0000\u0000\u0000\u0000\u0000\u0000\u0000\u0000\u0000\u0000\u0000\u0000\u0000\u0000\u0000\u0000\u0000\u0000\u0000\u0000\u0000",
        "\u0000\u0000\u0000\u0000\u0000\u0000\u0000\u0000\u0000\u0000\u0000\u0000\u0000\u0000\u0000\u0000\u0000\u0000\u0000\u0000\u0000\u0000\u0000\u0000\u0000\u0000\u0000\u0000\u0000\u0000\u0000\u0000\u0000\u0000\u0000\u0000\u0000\u0000\u0000\u0000\u0000\u0000\u0000\u0000\u0000\u0000\u0000\u0000\u0000\u0000\u0000\u0000\u0000\u0000\u0000\u0000\u0000\u0000\u0000\u0000\u0000\u0000\u0000\u0000\u0000\u0000\u0000\u0000\u0000\u0000\u0000\u0000\u0000\u0000\u0000\u0000\u0000\u0000\u0000\u0000\u0000\u0000\u0000\u0000\u0000\u0000\u0000\u0000\u0000\u0000\u0000\u0000\u0000\u0000\u0000\u0000\u0000\u0000\u0000\u0000\u0000\u0000\u0000\u0000\u0000\u0000\u0000\u0000\u0000\u0000\u0000\u0000\u0000\u0000\u0000\u0000\u0000\u0000\u0000\u0000\u0000\u0000\u0000\u0000\u0000\u0000\u0000\u0000\u0000\u0000\u0000\u0000\u0000\u0000\u0000\u0000\u0000\u0000\u0000\u0000\u0000\u0000\u0000\u0000\u0000\u0000\u0000\u0000\u0000\u0000\u0000\u0000\u0000\u0000\u0000\u0000\u0000\u0000\u0000\u0000\u0000\u0000\u0000\u0000\u0000\u0000\u0000\u0000\u0000\u0000\u0000\u0000\u0000\u0000\u0000\u0000\u0000\u0000\u0000\u0000\u0000\u0000\u0000\u0000\u0000\u0000\u0000\u0000\u0000\u0000\u0000\u0000\u0000\u0000\u0000\u0000\u0000\u0000\u0000\u0000\u0000\u0000\u0000\u0000\u0000\u0000\u0000\u0000\u0000\u0000\u0000\u0000\u0000\u0000\u0000\u0000\u0000\u0000\u0000\u0000\u0000\u0000\u0000\u0000\u0000\u0000\u0000\u0000\u0000\u0000\u0000\u0000\u0000\u0000\u0000\u0000\u0000\u0000\u0000\u0000\u0000\u0000\u0000\u0000\u0000\u0000\u0000\u0000\u0000\u0000\u0000\u0000\u0000\u0000\u0000\u0000\u0000\u0000\u0000\u0000",
        "\u0000\u0000\u0000\u0000\u0000\u0000\u0000\u0000\u0000\u0000\u0000\u0000\u0000\u0000\u0000\u0000\u0000\u0000\u0000\u0000\u0000\u0000\u0000\u0000\u0000\u0000\u0000\u0000\u0000\u0000\u0000\u0000\u0000\u0000\u0000\u0000\u0000\u0000\u0000\u0000\u0000\u0000\u0000\u0000\u0000\u0000\u0000\u0000\u0000\u0000\u0000\u0000\u0000\u0000\u0000\u0000\u0000\u0000\u0000\u0000\u0000\u0000\u0000\u0000\u0000\u0000\u0000\u0000\u0000\u0000\u0000\u0000\u0000\u0000\u0000\u0000\u0000\u0000\u0000\u0000\u0000\u0000\u0000\u0000\u0000\u0000\u0000\u0000\u0000\u0000\u0000\u0000\u0000\u0000\u0000\u0000\u0000\u0000\u0000\u0000\u0000\u0000\u0000\u0000\u0000\u0000\u0000\u0000\u0000\u0000\u0000\u0000\u0000\u0000\u0000\u0000\u0000\u0000\u0000\u0000\u0000\u0000\u0000\u0000\u0000\u0000\u0000\u0000\u0000\u0000\u0000\u0000\u0000\u0000\u0000\u0000\u0000\u0000\u0000\u0000\u0000\u0000\u0000\u0000\u0000\u0000\u0000\u0000\u0000\u0000\u0000\u0000\u0000\u0000\u0000\u0000\u0000\u0000\u0000\u0000\u0000\u0000\u0000\u0000\u0000\u0000\u0000\u0000\u0000\u0000\u0000\u0000\u0000\u0000\u0000\u0000\u0000\u0000\u0000\u0000\u0000\u0000\u0000\u0000\u0000\u0000\u0000\u0000\u0000\u0000\u0000\u0000\u0000\u0000\u0000\u0000\u0000\u0000\u0000\u0000\u0000\u0000\u0000\u0000\u0000\u0000\u0000\u0000\u0000\u0000\u0000\u0000\u0000\u0000\u0000\u0000\u0000\u0000\u0000\u0000\u0000\u0000\u0000\u0000\u0000\u0000\u0000\u0000\u0000\u0000\u0000\u0000\u0000\u0000\u0000\u0000\u0000\u0000\u0000\u0000\u0000\u0000\u0000\u0000\u0000\u0000\u0000\u0000\u0000\u0000\u0000\u0000\u0000\u0000\u0000\u0000\u0000\u0000\u0000\u0000",
        "\u0000\u0000\u0000\u0000\u0000\u0000\u0000\u0000\u0000\u0000\u0000\u0000\u0000\u0000\u0000\u0000\u0000\u0000\u0000\u0000\u0000\u0000\u0000\u0000\u0000\u0000\u0000\u0000\u0000\u0000\u0000\u0000\u0000\u0000\u0000\u0000\u0000\u0000\u0000\u0000\u0000\u0000\u0000\u0000\u0000\u0000\u0000\u0000\u0000\u0000\u0000\u0000\u0000\u0000\u0000\u0000\u0000\u0000\u0000\u0000\u0000\u0000\u0000\u0000\u0000\u0000\u0000\u0000\u0000\u0000\u0000\u0000\u0000\u0000\u0000\u0000\u0000\u0000\u0000\u0000\u0000\u0000\u0000\u0000\u0000\u0000\u0000\u0000\u0000\u0000\u0000\u0000\u0000\u0000\u0000\u0000\u0000\u0000\u0000\u0000\u0000\u0000\u0000\u0000\u0000\u0000\u0000\u0000\u0000\u0000\u0000\u0000\u0000\u0000\u0000\u0000\u0000\u0000\u0000\u0000\u0000\u0000\u0000\u0000\u0000\u0000\u0000\u0000\u0000\u0000\u0000\u0000\u0000\u0000\u0000\u0000\u0000\u0000\u0000\u0000\u0000\u0000\u0000\u0000\u0000\u0000\u0000\u0000\u0000\u0000\u0000\u0000\u0000\u0000\u0000\u0000\u0000\u0000\u0000\u0000\u0000\u0000\u0000\u0000\u0000\u0000\u0000\u0000\u0000\u0000\u0000\u0000\u0000\u0000\u0000\u0000\u0000\u0000\u0000\u0000\u0000\u0000\u0000\u0000\u0000\u0000\u0000\u0000\u0000\u0000\u0000\u0000\u0000\u0000\u0000\u0000\u0000\u0000\u0000\u0000\u0000\u0000\u0000\u0000\u0000\u0000\u0000\u0000\u0000\u0000\u0000\u0000\u0000\u0000\u0000\u0000\u0000\u0000\u0000\u0000\u0000\u0000\u0000\u0000\u0000\u0000\u0000\u0000\u0000\u0000\u0000\u0000\u0000\u0000\u0000\u0000\u0000\u0000\u0000\u0000\u0000\u0000\u0000\u0000\u0000\u0000\u0000\u0000\u0000\u0000\u0000\u0000\u0000\u0000\u0000\u0000\u0000\u0000\u0000\u0000",
