{
  "AcquisitionMatrixPE": 70,
  "AcquisitionNumber": 1,
  "AcquisitionTime": "09:43:5.607500",
  "BandwidthPerPixelPhaseEncode": 51.948,
  "BaseResolution": 70,
  "BodyPartExamined": "HEAD",
  "CoilCombinationMethod": "Sum of Squares",
  "ConsistencyInfo": "N4_VE11C_LATEST_20160120",
  "ConversionSoftware": "dcm2niix",
  "ConversionSoftwareVersion": "v1.0.20220720",
  "DerivedVendorReportedEchoSpacing": 0.000550001,
  "DeviceSerialNumber": "66061",
  "DwellTime": 3.3e-06,
  "EchoTime": 0.022,
  "EchoTrainLength": 35,
  "EffectiveEchoSpacing": 0.000275,
  "FlipAngle": 90,
  "HeudiconvVersion": "1.1.1",
  "ImageOrientationPatientDICOM": [0.999623, 0.00625129, 0.0267516, -0.00122123, 0.982915, -0.184053],
  "ImageOrientationText": "Tra>Cor(-10.6)>Sag(1.6)",
  "ImageType": [
    "ORIGINAL",
    "PRIMARY",
    "M",
    "ND",
    "NORM",
    "MOSAIC"
],
  "ImagingFrequency": 123.254,
  "InPlanePhaseEncodingDirectionDICOM": "COL",
  "InstitutionAddress": "Street StreetNo,City/1c4204/,District,KR,ZIP",
  "InstitutionName": "SKKU",
  "InstitutionalDepartmentName": "Department",
  "MRAcquisitionType": "2D",
  "MagneticFieldStrength": 3,
  "Manufacturer": "Siemens",
  "ManufacturersModelName": "Prisma",
  "MatrixCoilMode": "GRAPPA",
  "Modality": "MR",
  "NonlinearGradientCorrection": false,
  "ParallelReductionFactorInPlane": 2,
  "PartialFourier": 1,
  "PatientPosition": "HFS",
  "PercentPhaseFOV": 100,
  "PercentSampling": 100,
  "PhaseEncodingDirection": "j-",
  "PhaseEncodingSteps": 70,
  "PhaseResolution": 1,
  "PixelBandwidth": 2165,
  "ProcedureStepDescription": "Head^PI:Others",
  "ProtocolName": "BOLD_ep2d_3x3x3_response2",
  "PulseSequenceDetails": "%SiemensSeq%\\ep2d_pace",
  "ReceiveCoilActiveElements": "HC1-7",
  "ReceiveCoilName": "HeadNeck_64",
  "ReconMatrixPE": 70,
  "RefLinesPE": 24,
  "RepetitionTime": 2,
  "SAR": 0.129217,
  "ScanOptions": "FS",
  "ScanningSequence": "EP",
  "SequenceName": "*epfid2d1_70",
  "SequenceVariant": "SK",
  "SeriesDescription": "BOLD_ep2d_3x3x3_response2",
  "SeriesNumber": 5,
  "ShimSetting": [5050, 3725, 4479, 282, -11, 9, -40, 92],
  "SliceThickness": 3,
  "SliceTiming": [0.99, 0, 1.0375, 0.0475, 1.085, 0.095, 1.13, 0.14, 1.1775, 0.1875, 1.225, 0.235, 1.2725, 0.2825, 1.32, 0.33, 1.3675, 0.3775, 1.415, 0.425, 1.46, 0.47, 1.5075, 0.5175, 1.555, 0.565, 1.6025, 0.6125, 1.65, 0.66, 1.6975, 0.7075, 1.745, 0.755, 1.79, 0.8, 1.8375, 0.8475, 1.885, 0.895, 1.9325, 0.9425],
  "SoftwareVersions": "syngo MR E11",
  "SpacingBetweenSlices": 3,
  "StationName": "AWP66061",
  "TaskName": "response",
  "TotalReadoutTime": 0.018975,
  "TxRefAmp": 246.062,
  "dcmmeta_affine": [
    [-2.9988677501678467, -0.0036636756267398596, 0.082335464656353, 104.57394409179688],
    [-0.018753882497549057, 2.9487464427948, -0.5518540143966675, -84.66771697998047],
    [0.08025486767292023, 0.5521604418754578, 2.9476563930511475, -78.9190902709961],
    [0.0, 0.0, 0.0, 1.0]
],
  "dcmmeta_reorient_transform": [
    [0.0, -1.0, 0.0, 69.0],
    [1.0, 0.0, 0.0, 0.0],
    [0.0, 0.0, -1.0, 41.0],
    [0.0, 0.0, 0.0, 1.0]
],
  "dcmmeta_shape": [70, 70, 42, 341],
  "dcmmeta_slice_dim": 2,
  "dcmmeta_version": 0.6,
  "global": {
    "const": {
      "AcquisitionMatrix": [70, 0, 0, 70],
      "AngioFlag": "N",
      "BitsAllocated": 16,
      "BitsStored": 12,
      "BodyPartExamined": "HEAD",
      "Columns": 490,
      "EchoNumbers": 1,
      "EchoTime": 22.0,
      "EchoTrainLength": 35,
      "FlipAngle": 90.0,
      "HighBit": 11,
      "ImageOrientationPatient": [0.99962256480398, 0.00625129395918, 0.02675162160614, -0.0012212252222, 0.98291547058808, -0.1840534875724],
      "ImagePositionPatient": [-736.68975119034, -719.3448319787, 179.1340643258],
      "ImageType": [
        "ORIGINAL",
        "PRIMARY",
        "M",
        "ND",
        "NORM",
        "MOSAIC"
],
      "ImagedNucleus": "1H",
      "ImagingFrequency": 123.25449,
      "InPlanePhaseEncodingDirection": "COL",
      "MRAcquisitionType": "2D",
      "MagneticFieldStrength": 3.0,
      "Manufacturer": "SIEMENS",
      "ManufacturerModelName": "Prisma",
      "Modality": "MR",
      "NumberOfAverages": 1.0,
      "NumberOfPhaseEncodingSteps": 70,
      "PercentPhaseFieldOfView": 100.0,
      "PercentSampling": 100.0,
      "PerformedProcedureStepStartTime": "091907.243000",
      "PhotometricInterpretation": "MONOCHROME2",
      "PixelBandwidth": 2165.0,
      "PixelRepresentation": 0,
      "PixelSpacing": [3.0, 3.0],
      "ProtocolName": "BOLD_ep2d_3x3x3_response2",
      "RepetitionTime": 2000.0,
      "Rows": 490,
      "SAR": 0.12921700759431,
      "SamplesPerPixel": 1,
      "ScanOptions": "FS",
      "ScanningSequence": "EP",
      "SequenceName": "*epfid2d1_70",
      "SequenceVariant": "SK",
      "SeriesDescription": "BOLD_ep2d_3x3x3_response2",
      "SeriesNumber": 5,
      "SeriesTime": "094409.447000",
      "SliceLocation": 63.902666212569,
      "SliceThickness": 3.0,
      "SmallestImagePixelValue": 0,
      "SoftwareVersions": "syngo MR E11",
      "SpacingBetweenSlices": 2.9999999543716,
      "SpecificCharacterSet": "ISO_IR 100",
      "StudyID": "3",
      "StudyTime": "091907.169000",
      "TransmitCoilName": "Body",
      "VariableFlipAngleFlag": "N",
      "WindowCenterWidthExplanation": "Algo1",
      "dBdt": 0.0},
    "slices": {}
  },
  "time": {
    "samples": {
      "AcquisitionNumber": [1, 2, 3, 4, 5, 6, 7, 8, 9, 10, 11, 12, 13, 14, 15, 16, 17, 18, 19, 20, 21, 22, 23, 24, 25, 26, 27, 28, 29, 30, 31, 32, 33, 34, 35, 36, 37, 38, 39, 40, 41, 42, 43, 44, 45, 46, 47, 48, 49, 50, 51, 52, 53, 54, 55, 56, 57, 58, 59, 60, 61, 62, 63, 64, 65, 66, 67, 68, 69, 70, 71, 72, 73, 74, 75, 76, 77, 78, 79, 80, 81, 82, 83, 84, 85, 86, 87, 88, 89, 90, 91, 92, 93, 94, 95, 96, 97, 98, 99, 100, 101, 102, 103, 104, 105, 106, 107, 108, 109, 110, 111, 112, 113, 114, 115, 116, 117, 118, 119, 120, 121, 122, 123, 124, 125, 126, 127, 128, 129, 130, 131, 132, 133, 134, 135, 136, 137, 138, 139, 140, 141, 142, 143, 144, 145, 146, 147, 148, 149, 150, 151, 152, 153, 154, 155, 156, 157, 158, 159, 160, 161, 162, 163, 164, 165, 166, 167, 168, 169, 170, 171, 172, 173, 174, 175, 176, 177, 178, 179, 180, 181, 182, 183, 184, 185, 186, 187, 188, 189, 190, 191, 192, 193, 194, 195, 196, 197, 198, 199, 200, 201, 202, 203, 204, 205, 206, 207, 208, 209, 210, 211, 212, 213, 214, 215, 216, 217, 218, 219, 220, 221, 222, 223, 224, 225, 226, 227, 228, 229, 230, 231, 232, 233, 234, 235, 236, 237, 238, 239, 240, 241, 242, 243, 244, 245, 246, 247, 248, 249, 250, 251, 252, 253, 254, 255, 256, 257, 258, 259, 260, 261, 262, 263, 264, 265, 266, 267, 268, 269, 270, 271, 272, 273, 274, 275, 276, 277, 278, 279, 280, 281, 282, 283, 284, 285, 286, 287, 288, 289, 290, 291, 292, 293, 294, 295, 296, 297, 298, 299, 300, 301, 302, 303, 304, 305, 306, 307, 308, 309, 310, 311, 312, 313, 314, 315, 316, 317, 318, 319, 320, 321, 322, 323, 324, 325, 326, 327, 328, 329, 330, 331, 332, 333, 334, 335, 336, 337, 338, 339, 340, 341],
      "AcquisitionTime": ["094305.607500", "094307.607500", "094309.607500", "094311.607500", "094313.607500", "094315.607500", "094317.607500", "094319.607500", "094321.607500", "094323.607500", "094325.607500", "094327.607500", "094329.607500", "094331.607500", "094333.607500", "094335.607500", "094337.607500", "094339.607500", "094341.607500", "094343.607500", "094345.607500", "094347.607500", "094349.607500", "094351.607500", "094353.607500", "094355.607500", "094357.607500", "094359.607500", "094401.607500", "094403.607500", "094405.607500", "094407.607500", "094409.607500", "094411.607500", "094413.607500", "094415.607500", "094417.607500", "094419.607500", "094421.607500", "094423.607500", "094425.607500", "094427.607500", "094429.607500", "094431.607500", "094433.607500", "094435.607500", "094437.607500", "094439.607500", "094441.607500", "094443.607500", "094445.607500", "094447.607500", "094449.607500", "094451.607500", "094453.607500", "094455.607500", "094457.607500", "094459.607500", "094501.607500", "094503.607500", "094505.607500", "094507.607500", "094509.607500", "094511.607500", "094513.607500", "094515.607500", "094517.607500", "094519.607500", "094521.607500", "094523.607500", "094525.607500", "094527.607500", "094529.607500", "094531.607500", "094533.607500", "094535.607500", "094537.607500", "094539.607500", "094541.607500", "094543.607500", "094545.607500", "094547.607500", "094549.607500", "094551.607500", "094553.607500", "094555.607500", "094557.607500", "094559.607500", "094601.607500", "094603.607500", "094605.607500", "094607.607500", "094609.607500", "094611.607500", "094613.607500", "094615.607500", "094617.607500", "094619.607500", "094621.607500", "094623.607500", "094625.607500", "094627.607500", "094629.607500", "094631.607500", "094633.607500", "094635.607500", "094637.607500", "094639.607500", "094641.607500", "094643.607500", "094645.607500", "094647.607500", "094649.607500", "094651.607500", "094653.607500", "094655.607500", "094657.607500", "094659.607500", "094701.607500", "094703.607500", "094705.607500", "094707.607500", "094709.607500", "094711.607500", "094713.607500", "094715.607500", "094717.607500", "094719.607500", "094721.607500", "094723.607500", "094725.607500", "094727.607500", "094729.607500", "094731.607500", "094733.607500", "094735.607500", "094737.607500", "094739.607500", "094741.607500", "094743.607500", "094745.607500", "094747.607500", "094749.607500", "094751.607500", "094753.607500", "094755.607500", "094757.607500", "094759.607500", "094801.607500", "094803.607500", "094805.607500", "094807.607500", "094809.607500", "094811.607500", "094813.607500", "094815.607500", "094817.607500", "094819.607500", "094821.607500", "094823.607500", "094825.607500", "094827.607500", "094829.607500", "094831.607500", "094833.607500", "094835.607500", "094837.607500", "094839.607500", "094841.607500", "094843.607500", "094845.607500", "094847.607500", "094849.607500", "094851.607500", "094853.607500", "094855.607500", "094857.607500", "094859.607500", "094901.607500", "094903.607500", "094905.607500", "094907.607500", "094909.607500", "094911.607500", "094913.607500", "094915.607500", "094917.607500", "094919.607500", "094921.607500", "094923.607500", "094925.607500", "094927.607500", "094929.607500", "094931.607500", "094933.607500", "094935.607500", "094937.607500", "094939.607500", "094941.607500", "094943.607500", "094945.607500", "094947.607500", "094949.607500", "094951.607500", "094953.607500", "094955.607500", "094957.607500", "094959.607500", "095001.607500", "095003.607500", "095005.607500", "095007.607500", "095009.607500", "095011.607500", "095013.607500", "095015.607500", "095017.607500", "095019.607500", "095021.607500", "095023.607500", "095025.607500", "095027.607500", "095029.607500", "095031.607500", "095033.607500", "095035.607500", "095037.607500", "095039.607500", "095041.607500", "095043.607500", "095045.607500", "095047.607500", "095049.607500", "095051.607500", "095053.607500", "095055.607500", "095057.607500", "095059.607500", "095101.607500", "095103.607500", "095105.607500", "095107.607500", "095109.607500", "095111.607500", "095113.607500", "095115.607500", "095117.607500", "095119.607500", "095121.607500", "095123.607500", "095125.607500", "095127.607500", "095129.607500", "095131.607500", "095133.607500", "095135.607500", "095137.607500", "095139.607500", "095141.607500", "095143.607500", "095145.607500", "095147.607500", "095149.607500", "095151.607500", "095153.607500", "095155.607500", "095157.607500", "095159.607500", "095201.607500", "095203.607500", "095205.607500", "095207.607500", "095209.607500", "095211.607500", "095213.607500", "095215.607500", "095217.607500", "095219.607500", "095221.607500", "095223.607500", "095225.607500", "095227.607500", "095229.607500", "095231.607500", "095233.607500", "095235.607500", "095237.607500", "095239.607500", "095241.607500", "095243.607500", "095245.607500", "095247.607500", "095249.607500", "095251.607500", "095253.607500", "095255.607500", "095257.607500", "095259.607500", "095301.607500", "095303.607500", "095305.607500", "095307.607500", "095309.607500", "095311.607500", "095313.607500", "095315.607500", "095317.607500", "095319.607500", "095321.607500", "095323.607500", "095325.607500", "095327.607500", "095329.607500", "095331.607500", "095333.607500", "095335.607500", "095337.607500", "095339.607500", "095341.607500", "095343.607500", "095345.607500", "095347.607500", "095349.607500", "095351.607500", "095353.607500", "095355.607500", "095357.607500", "095359.607500", "095401.607500", "095403.607500", "095405.607500", "095407.607500", "095409.607500", "095411.607500", "095413.607500", "095415.607500", "095417.607500", "095419.607500", "095421.607500", "095423.607500", "095425.607500"],
      "ContentTime": ["094409.450000", "094409.454000", "094409.457000", "094409.460000", "094409.467000", "094409.470000", "094409.472000", "094409.482000", "094409.484000", "094409.487000", "094409.490000", "094409.493000", "094409.495000", "094409.498000", "094409.501000", "094409.503000", "094409.506000", "094409.509000", "094409.512000", "094409.514000", "094409.517000", "094409.520000", "094409.522000", "094409.525000", "094409.528000", "094409.531000", "094409.533000", "094409.536000", "094409.539000", "094449.446000", "094449.449000", "094449.451000", "094449.454000", "094449.457000", "094449.464000", "094449.467000", "094449.470000", "094449.472000", "094449.475000", "094449.478000", "094449.480000", "094449.483000", "094449.486000", "094449.488000", "094449.491000", "094449.494000", "094449.497000", "094449.499000", "094449.502000", "094529.446000", "094529.449000", "094529.452000", "094529.454000", "094529.457000", "094529.460000", "094529.472000", "094529.475000", "094529.478000", "094529.481000", "094529.483000", "094529.486000", "094529.489000", "094529.491000", "094529.494000", "094529.497000", "094529.500000", "094529.502000", "094529.505000", "094529.508000", "094609.446000", "094609.449000", "094609.451000", "094609.454000", "094609.457000", "094609.460000", "094609.462000", "094609.465000", "094609.468000", "094609.470000", "094609.473000", "094609.476000", "094609.485000", "094609.488000", "094609.491000", "094609.493000", "094609.496000", "094609.499000", "094609.501000", "094609.504000", "094649.446000", "094649.449000", "094649.451000", "094649.454000", "094649.457000", "094649.460000", "094649.462000", "094649.465000", "094649.468000", "094649.470000", "094649.473000", "094649.476000", "094649.479000", "094649.481000", "094649.484000", "094649.487000", "094649.489000", "094649.492000", "094649.495000", "094649.498000", "094729.446000", "094729.449000", "094729.451000", "094729.454000", "094729.457000", "094729.460000", "094729.462000", "094729.465000", "094729.468000", "094729.470000", "094729.473000", "094729.476000", "094729.479000", "094729.481000", "094729.484000", "094729.487000", "094729.489000", "094729.492000", "094729.495000", "094729.497000", "094809.447000", "094809.450000", "094809.452000", "094809.455000", "094809.458000", "094809.460000", "094809.463000", "094809.466000", "094809.469000", "094809.471000", "094809.474000", "094809.477000", "094809.480000", "094809.482000", "094809.485000", "094809.488000", "094809.490000", "094809.493000", "094809.496000", "094809.499000", "094849.446000", "094849.449000", "094849.451000", "094849.454000", "094849.457000", "094849.460000", "094849.462000", "094849.465000", "094849.468000", "094849.471000", "094849.473000", "094849.476000", "094849.479000", "094849.481000", "094849.484000", "094849.487000", "094849.490000", "094849.493000", "094849.495000", "094849.498000", "094929.446000", "094929.449000", "094929.452000", "094929.454000", "094929.457000", "094929.460000", "094929.462000", "094929.465000", "094929.468000", "094929.471000", "094929.473000", "094929.476000", "094929.479000", "094929.481000", "094929.484000", "094929.494000", "094929.497000", "094929.499000", "094929.502000", "094929.505000", "095009.446000", "095009.449000", "095009.451000", "095009.454000", "095009.457000", "095009.460000", "095009.462000", "095009.465000", "095009.468000", "095009.471000", "095009.473000", "095009.476000", "095009.479000", "095009.481000", "095009.484000", "095009.487000", "095009.490000", "095009.492000", "095009.495000", "095009.498000", "095029.447000", "095029.450000", "095029.453000", "095029.455000", "095029.458000", "095029.461000", "095029.463000", "095029.466000", "095029.469000", "095029.472000", "095109.446000", "095109.449000", "095109.465000", "095109.468000", "095109.470000", "095109.473000", "095109.476000", "095109.478000", "095109.481000", "095109.484000", "095109.487000", "095109.489000", "095109.492000", "095109.495000", "095109.497000", "095109.500000", "095109.503000", "095109.506000", "095109.508000", "095109.511000", "095149.446000", "095149.449000", "095149.451000", "095149.454000", "095149.457000", "095149.460000", "095149.462000", "095149.465000", "095149.468000", "095149.470000", "095149.473000", "095149.476000", "095149.479000", "095149.481000", "095149.484000", "095149.487000", "095149.490000", "095149.492000", "095149.495000", "095149.498000", "095229.446000", "095229.449000", "095229.451000", "095229.454000", "095229.457000", "095229.460000", "095229.462000", "095229.465000", "095229.468000", "095229.471000", "095229.473000", "095229.476000", "095229.479000", "095229.482000", "095229.484000", "095229.487000", "095229.490000", "095229.493000", "095229.495000", "095229.498000", "095309.446000", "095309.449000", "095309.452000", "095309.454000", "095309.457000", "095309.460000", "095309.462000", "095309.465000", "095309.468000", "095309.471000", "095309.473000", "095309.476000", "095309.479000", "095309.482000", "095309.484000", "095309.487000", "095309.490000", "095309.493000", "095309.495000", "095309.498000", "095349.446000", "095349.449000", "095349.451000", "095349.454000", "095349.457000", "095349.460000", "095349.462000", "095349.465000", "095349.468000", "095349.471000", "095349.473000", "095349.476000", "095349.479000", "095349.482000", "095349.484000", "095349.487000", "095349.490000", "095349.492000", "095349.495000", "095349.498000", "095429.446000", "095429.449000", "095429.451000", "095429.454000", "095429.457000", "095429.460000", "095429.462000", "095429.465000", "095429.468000", "095429.471000", "095429.473000", "095429.476000", "095429.479000", "095429.481000", "095429.484000", "095429.487000", "095429.490000", "095429.492000", "095429.495000", "095429.498000", "095432.712000", "095432.715000"],
      "DataSetTrailingPadding": [
        "\u0000\u0000\u0000\u0000\u0000\u0000\u0000\u0000\u0000\u0000\u0000\u0000\u0000\u0000\u0000\u0000\u0000\u0000\u0000\u0000\u0000\u0000\u0000\u0000\u0000\u0000\u0000\u0000\u0000\u0000\u0000\u0000\u0000\u0000\u0000\u0000\u0000\u0000\u0000\u0000\u0000\u0000\u0000\u0000\u0000\u0000\u0000\u0000\u0000\u0000\u0000\u0000\u0000\u0000\u0000\u0000\u0000\u0000\u0000\u0000\u0000\u0000\u0000\u0000\u0000\u0000\u0000\u0000\u0000\u0000\u0000\u0000\u0000\u0000\u0000\u0000\u0000\u0000\u0000\u0000\u0000\u0000\u0000\u0000\u0000\u0000\u0000\u0000\u0000\u0000\u0000\u0000\u0000\u0000\u0000\u0000\u0000\u0000\u0000\u0000\u0000\u0000\u0000\u0000\u0000\u0000\u0000\u0000",
        "\u0000\u0000\u0000\u0000\u0000\u0000\u0000\u0000\u0000\u0000\u0000\u0000\u0000\u0000\u0000\u0000\u0000\u0000\u0000\u0000\u0000\u0000\u0000\u0000\u0000\u0000\u0000\u0000\u0000\u0000\u0000\u0000\u0000\u0000\u0000\u0000\u0000\u0000\u0000\u0000\u0000\u0000\u0000\u0000\u0000\u0000\u0000\u0000\u0000\u0000\u0000\u0000\u0000\u0000\u0000\u0000\u0000\u0000\u0000\u0000\u0000\u0000\u0000\u0000\u0000\u0000\u0000\u0000\u0000\u0000\u0000\u0000\u0000\u0000\u0000\u0000\u0000\u0000\u0000\u0000\u0000\u0000\u0000\u0000\u0000\u0000\u0000\u0000\u0000\u0000\u0000\u0000\u0000\u0000\u0000\u0000\u0000\u0000\u0000\u0000\u0000\u0000\u0000\u0000\u0000\u0000\u0000\u0000",
        "\u0000\u0000\u0000\u0000\u0000\u0000\u0000\u0000\u0000\u0000\u0000\u0000\u0000\u0000\u0000\u0000\u0000\u0000\u0000\u0000\u0000\u0000\u0000\u0000\u0000\u0000\u0000\u0000\u0000\u0000\u0000\u0000\u0000\u0000\u0000\u0000\u0000\u0000\u0000\u0000\u0000\u0000\u0000\u0000\u0000\u0000\u0000\u0000\u0000\u0000\u0000\u0000\u0000\u0000\u0000\u0000\u0000\u0000\u0000\u0000\u0000\u0000\u0000\u0000\u0000\u0000\u0000\u0000\u0000\u0000\u0000\u0000\u0000\u0000\u0000\u0000\u0000\u0000\u0000\u0000\u0000\u0000\u0000\u0000\u0000\u0000\u0000\u0000\u0000\u0000\u0000\u0000\u0000\u0000\u0000\u0000\u0000\u0000\u0000\u0000\u0000\u0000\u0000\u0000\u0000\u0000\u0000\u0000",
        "\u0000\u0000\u0000\u0000\u0000\u0000\u0000\u0000\u0000\u0000\u0000\u0000\u0000\u0000\u0000\u0000\u0000\u0000\u0000\u0000\u0000\u0000\u0000\u0000\u0000\u0000\u0000\u0000\u0000\u0000\u0000\u0000\u0000\u0000\u0000\u0000\u0000\u0000\u0000\u0000\u0000\u0000\u0000\u0000\u0000\u0000\u0000\u0000\u0000\u0000\u0000\u0000\u0000\u0000\u0000\u0000\u0000\u0000\u0000\u0000\u0000\u0000\u0000\u0000\u0000\u0000\u0000\u0000\u0000\u0000\u0000\u0000\u0000\u0000\u0000\u0000\u0000\u0000\u0000\u0000\u0000\u0000\u0000\u0000\u0000\u0000\u0000\u0000\u0000\u0000\u0000\u0000\u0000\u0000\u0000\u0000\u0000\u0000\u0000\u0000\u0000\u0000\u0000\u0000\u0000\u0000\u0000\u0000",
        "\u0000\u0000\u0000\u0000\u0000\u0000\u0000\u0000\u0000\u0000\u0000\u0000\u0000\u0000\u0000\u0000\u0000\u0000\u0000\u0000\u0000\u0000\u0000\u0000\u0000\u0000\u0000\u0000\u0000\u0000\u0000\u0000\u0000\u0000\u0000\u0000\u0000\u0000\u0000\u0000\u0000\u0000\u0000\u0000\u0000\u0000\u0000\u0000\u0000\u0000\u0000\u0000\u0000\u0000\u0000\u0000\u0000\u0000\u0000\u0000\u0000\u0000\u0000\u0000\u0000\u0000\u0000\u0000\u0000\u0000\u0000\u0000\u0000\u0000\u0000\u0000\u0000\u0000\u0000\u0000\u0000\u0000\u0000\u0000\u0000\u0000\u0000\u0000\u0000\u0000\u0000\u0000\u0000\u0000\u0000\u0000\u0000\u0000\u0000\u0000\u0000\u0000\u0000\u0000\u0000\u0000",
        "\u0000\u0000\u0000\u0000\u0000\u0000\u0000\u0000\u0000\u0000\u0000\u0000\u0000\u0000\u0000\u0000\u0000\u0000\u0000\u0000\u0000\u0000\u0000\u0000\u0000\u0000\u0000\u0000\u0000\u0000\u0000\u0000\u0000\u0000\u0000\u0000\u0000\u0000\u0000\u0000\u0000\u0000\u0000\u0000\u0000\u0000\u0000\u0000\u0000\u0000\u0000\u0000\u0000\u0000\u0000\u0000\u0000\u0000\u0000\u0000\u0000\u0000\u0000\u0000\u0000\u0000\u0000\u0000\u0000\u0000\u0000\u0000\u0000\u0000\u0000\u0000\u0000\u0000\u0000\u0000\u0000\u0000\u0000\u0000\u0000\u0000\u0000\u0000\u0000\u0000\u0000\u0000\u0000\u0000\u0000\u0000\u0000\u0000\u0000\u0000\u0000\u0000\u0000\u0000\u0000\u0000",
        "\u0000\u0000\u0000\u0000\u0000\u0000\u0000\u0000\u0000\u0000\u0000\u0000\u0000\u0000\u0000\u0000\u0000\u0000\u0000\u0000\u0000\u0000\u0000\u0000\u0000\u0000\u0000\u0000\u0000\u0000\u0000\u0000\u0000\u0000\u0000\u0000\u0000\u0000\u0000\u0000\u0000\u0000\u0000\u0000\u0000\u0000\u0000\u0000\u0000\u0000\u0000\u0000\u0000\u0000\u0000\u0000\u0000\u0000\u0000\u0000\u0000\u0000\u0000\u0000\u0000\u0000\u0000\u0000\u0000\u0000\u0000\u0000\u0000\u0000\u0000\u0000\u0000\u0000\u0000\u0000\u0000\u0000\u0000\u0000\u0000\u0000\u0000\u0000\u0000\u0000\u0000\u0000\u0000\u0000\u0000\u0000\u0000\u0000\u0000\u0000\u0000\u0000\u0000\u0000\u0000\u0000",
        "\u0000\u0000\u0000\u0000\u0000\u0000\u0000\u0000\u0000\u0000\u0000\u0000\u0000\u0000\u0000\u0000\u0000\u0000\u0000\u0000\u0000\u0000\u0000\u0000\u0000\u0000\u0000\u0000\u0000\u0000\u0000\u0000\u0000\u0000\u0000\u0000\u0000\u0000\u0000\u0000\u0000\u0000\u0000\u0000\u0000\u0000\u0000\u0000\u0000\u0000\u0000\u0000\u0000\u0000\u0000\u0000\u0000\u0000\u0000\u0000\u0000\u0000\u0000\u0000\u0000\u0000\u0000\u0000\u0000\u0000\u0000\u0000\u0000\u0000\u0000\u0000\u0000\u0000\u0000\u0000\u0000\u0000\u0000\u0000\u0000\u0000\u0000\u0000\u0000\u0000\u0000\u0000\u0000\u0000\u0000\u0000\u0000\u0000\u0000\u0000\u0000\u0000\u0000\u0000\u0000\u0000",
        "\u0000\u0000\u0000\u0000\u0000\u0000\u0000\u0000\u0000\u0000\u0000\u0000\u0000\u0000\u0000\u0000\u0000\u0000\u0000\u0000\u0000\u0000\u0000\u0000\u0000\u0000\u0000\u0000\u0000\u0000\u0000\u0000\u0000\u0000\u0000\u0000\u0000\u0000\u0000\u0000\u0000\u0000\u0000\u0000\u0000\u0000\u0000\u0000\u0000\u0000\u0000\u0000\u0000\u0000\u0000\u0000\u0000\u0000\u0000\u0000\u0000\u0000\u0000\u0000\u0000\u0000\u0000\u0000\u0000\u0000\u0000\u0000\u0000\u0000\u0000\u0000\u0000\u0000\u0000\u0000\u0000\u0000\u0000\u0000\u0000\u0000\u0000\u0000\u0000\u0000\u0000\u0000\u0000\u0000\u0000\u0000\u0000\u0000\u0000\u0000\u0000\u0000\u0000\u0000\u0000\u0000",
        "\u0000\u0000\u0000\u0000\u0000\u0000\u0000\u0000\u0000\u0000\u0000\u0000\u0000\u0000\u0000\u0000\u0000\u0000\u0000\u0000\u0000\u0000\u0000\u0000\u0000\u0000\u0000\u0000\u0000\u0000\u0000\u0000\u0000\u0000\u0000\u0000\u0000\u0000\u0000\u0000\u0000\u0000\u0000\u0000\u0000\u0000\u0000\u0000\u0000\u0000\u0000\u0000\u0000\u0000\u0000\u0000\u0000\u0000\u0000\u0000\u0000\u0000\u0000\u0000\u0000\u0000\u0000\u0000\u0000\u0000\u0000\u0000\u0000\u0000\u0000\u0000\u0000\u0000\u0000\u0000\u0000\u0000\u0000\u0000\u0000\u0000\u0000\u0000\u0000\u0000\u0000\u0000\u0000\u0000\u0000\u0000\u0000\u0000\u0000\u0000\u0000\u0000",
        "\u0000\u0000\u0000\u0000\u0000\u0000\u0000\u0000\u0000\u0000\u0000\u0000\u0000\u0000\u0000\u0000\u0000\u0000\u0000\u0000\u0000\u0000\u0000\u0000\u0000\u0000\u0000\u0000\u0000\u0000\u0000\u0000\u0000\u0000\u0000\u0000\u0000\u0000\u0000\u0000\u0000\u0000\u0000\u0000\u0000\u0000\u0000\u0000\u0000\u0000\u0000\u0000\u0000\u0000\u0000\u0000\u0000\u0000\u0000\u0000\u0000\u0000\u0000\u0000\u0000\u0000\u0000\u0000\u0000\u0000\u0000\u0000\u0000\u0000\u0000\u0000\u0000\u0000\u0000\u0000\u0000\u0000\u0000\u0000\u0000\u0000\u0000\u0000\u0000\u0000\u0000\u0000\u0000\u0000\u0000\u0000\u0000\u0000\u0000\u0000\u0000\u0000",
        "\u0000\u0000\u0000\u0000\u0000\u0000\u0000\u0000\u0000\u0000\u0000\u0000\u0000\u0000\u0000\u0000\u0000\u0000\u0000\u0000\u0000\u0000\u0000\u0000\u0000\u0000\u0000\u0000\u0000\u0000\u0000\u0000\u0000\u0000\u0000\u0000\u0000\u0000\u0000\u0000\u0000\u0000\u0000\u0000\u0000\u0000\u0000\u0000\u0000\u0000\u0000\u0000\u0000\u0000\u0000\u0000\u0000\u0000\u0000\u0000\u0000\u0000\u0000\u0000\u0000\u0000\u0000\u0000\u0000\u0000\u0000\u0000\u0000\u0000\u0000\u0000\u0000\u0000\u0000\u0000\u0000\u0000\u0000\u0000\u0000\u0000\u0000\u0000\u0000\u0000\u0000\u0000\u0000\u0000\u0000\u0000\u0000\u0000\u0000\u0000\u0000\u0000",
        "\u0000\u0000\u0000\u0000\u0000\u0000\u0000\u0000\u0000\u0000\u0000\u0000\u0000\u0000\u0000\u0000\u0000\u0000\u0000\u0000\u0000\u0000\u0000\u0000\u0000\u0000\u0000\u0000\u0000\u0000\u0000\u0000\u0000\u0000\u0000\u0000\u0000\u0000\u0000\u0000\u0000\u0000\u0000\u0000\u0000\u0000\u0000\u0000\u0000\u0000\u0000\u0000\u0000\u0000\u0000\u0000\u0000\u0000\u0000\u0000\u0000\u0000\u0000\u0000\u0000\u0000\u0000\u0000\u0000\u0000\u0000\u0000\u0000\u0000\u0000\u0000\u0000\u0000\u0000\u0000\u0000\u0000\u0000\u0000\u0000\u0000\u0000\u0000\u0000\u0000\u0000\u0000\u0000\u0000\u0000\u0000\u0000\u0000\u0000\u0000\u0000\u0000",
        "\u0000\u0000\u0000\u0000\u0000\u0000\u0000\u0000\u0000\u0000\u0000\u0000\u0000\u0000\u0000\u0000\u0000\u0000\u0000\u0000\u0000\u0000\u0000\u0000\u0000\u0000\u0000\u0000\u0000\u0000\u0000\u0000\u0000\u0000\u0000\u0000\u0000\u0000\u0000\u0000\u0000\u0000\u0000\u0000\u0000\u0000\u0000\u0000\u0000\u0000\u0000\u0000\u0000\u0000\u0000\u0000\u0000\u0000\u0000\u0000\u0000\u0000\u0000\u0000\u0000\u0000\u0000\u0000\u0000\u0000\u0000\u0000\u0000\u0000\u0000\u0000\u0000\u0000\u0000\u0000\u0000\u0000\u0000\u0000\u0000\u0000\u0000\u0000\u0000\u0000\u0000\u0000\u0000\u0000\u0000\u0000\u0000\u0000\u0000\u0000\u0000\u0000\u0000\u0000",
        "\u0000\u0000\u0000\u0000\u0000\u0000\u0000\u0000\u0000\u0000\u0000\u0000\u0000\u0000\u0000\u0000\u0000\u0000\u0000\u0000\u0000\u0000\u0000\u0000\u0000\u0000\u0000\u0000\u0000\u0000\u0000\u0000\u0000\u0000\u0000\u0000\u0000\u0000\u0000\u0000\u0000\u0000\u0000\u0000\u0000\u0000\u0000\u0000\u0000\u0000\u0000\u0000\u0000\u0000\u0000\u0000\u0000\u0000\u0000\u0000\u0000\u0000\u0000\u0000\u0000\u0000\u0000\u0000\u0000\u0000\u0000\u0000\u0000\u0000\u0000\u0000\u0000\u0000\u0000\u0000\u0000\u0000\u0000\u0000\u0000\u0000\u0000\u0000\u0000\u0000\u0000\u0000\u0000\u0000\u0000\u0000\u0000\u0000\u0000\u0000\u0000\u0000",
        "\u0000\u0000\u0000\u0000\u0000\u0000\u0000\u0000\u0000\u0000\u0000\u0000\u0000\u0000\u0000\u0000\u0000\u0000\u0000\u0000\u0000\u0000\u0000\u0000\u0000\u0000\u0000\u0000\u0000\u0000\u0000\u0000\u0000\u0000\u0000\u0000\u0000\u0000\u0000\u0000\u0000\u0000\u0000\u0000\u0000\u0000\u0000\u0000\u0000\u0000\u0000\u0000\u0000\u0000\u0000\u0000\u0000\u0000\u0000\u0000\u0000\u0000\u0000\u0000\u0000\u0000\u0000\u0000\u0000\u0000\u0000\u0000\u0000\u0000\u0000\u0000\u0000\u0000\u0000\u0000\u0000\u0000\u0000\u0000\u0000\u0000\u0000\u0000\u0000\u0000\u0000\u0000\u0000\u0000\u0000\u0000\u0000\u0000\u0000\u0000\u0000\u0000\u0000\u0000",
        "\u0000\u0000\u0000\u0000\u0000\u0000\u0000\u0000\u0000\u0000\u0000\u0000\u0000\u0000\u0000\u0000\u0000\u0000\u0000\u0000\u0000\u0000\u0000\u0000\u0000\u0000\u0000\u0000\u0000\u0000\u0000\u0000\u0000\u0000\u0000\u0000\u0000\u0000\u0000\u0000\u0000\u0000\u0000\u0000\u0000\u0000\u0000\u0000\u0000\u0000\u0000\u0000\u0000\u0000\u0000\u0000\u0000\u0000\u0000\u0000\u0000\u0000\u0000\u0000\u0000\u0000\u0000\u0000\u0000\u0000\u0000\u0000\u0000\u0000\u0000\u0000\u0000\u0000\u0000\u0000\u0000\u0000\u0000\u0000\u0000\u0000\u0000\u0000\u0000\u0000\u0000\u0000\u0000\u0000\u0000\u0000\u0000\u0000\u0000\u0000\u0000\u0000\u0000\u0000",
