{
  "AcquisitionMatrixPE": 70,
  "AcquisitionNumber": 1,
  "AcquisitionTime": "10:02:38.692500",
  "BandwidthPerPixelPhaseEncode": 51.948,
  "BaseResolution": 70,
  "BodyPartExamined": "HEAD",
  "CoilCombinationMethod": "Sum of Squares",
  "ConsistencyInfo": "N4_VE11C_LATEST_20160120",
  "ConversionSoftware": "dcm2niix",
  "ConversionSoftwareVersion": "v1.0.20220720",
  "DerivedVendorReportedEchoSpacing": 0.000550001,
  "DeviceSerialNumber": "66061",
  "DwellTime": 3.3e-06,
  "EchoTime": 0.022,
  "EchoTrainLength": 35,
  "EffectiveEchoSpacing": 0.000275,
  "FlipAngle": 90,
  "HeudiconvVersion": "1.1.1",
  "ImageOrientationPatientDICOM": [0.999005, 0.00941122, 0.0436015, -0.00122055, 0.98289, -0.184188],
  "ImageOrientationText": "Tra>Cor(-10.6)>Sag(2.6)",
  "ImageType": [
    "ORIGINAL",
    "PRIMARY",
    "M",
    "ND",
    "NORM",
    "MOSAIC"
],
  "ImagingFrequency": 123.255,
  "InPlanePhaseEncodingDirectionDICOM": "COL",
  "InstitutionAddress": "Street StreetNo,City/1c4204/,District,KR,ZIP",
  "InstitutionName": "SKKU",
  "InstitutionalDepartmentName": "Department",
  "MRAcquisitionType": "2D",
  "MagneticFieldStrength": 3,
  "Manufacturer": "Siemens",
  "ManufacturersModelName": "Prisma",
  "MatrixCoilMode": "GRAPPA",
  "Modality": "MR",
  "NonlinearGradientCorrection": false,
  "ParallelReductionFactorInPlane": 2,
  "PartialFourier": 1,
  "PatientPosition": "HFS",
  "PercentPhaseFOV": 100,
  "PercentSampling": 100,
  "PhaseEncodingDirection": "j-",
  "PhaseEncodingSteps": 70,
  "PhaseResolution": 1,
  "PixelBandwidth": 2165,
  "ProcedureStepDescription": "Head^PI:Others",
  "ProtocolName": "BOLD_ep2d_3x3x3_dimension2",
  "PulseSequenceDetails": "%SiemensSeq%\\ep2d_pace",
  "ReceiveCoilActiveElements": "HC1-7",
  "ReceiveCoilName": "HeadNeck_64",
  "ReconMatrixPE": 70,
  "RefLinesPE": 24,
  "RepetitionTime": 2,
  "SAR": 0.115669,
  "ScanOptions": "FS",
  "ScanningSequence": "EP",
  "SequenceName": "*epfid2d1_70",
  "SequenceVariant": "SK",
  "SeriesDescription": "BOLD_ep2d_3x3x3_dimension2",
  "SeriesNumber": 13,
  "ShimSetting": [5038, 3752, 4451, 378, -91, -16, -92, 59],
  "SliceThickness": 3,
  "SliceTiming": [0.99, 0, 1.0375, 0.0475, 1.085, 0.095, 1.1325, 0.1425, 1.18, 0.19, 1.2275, 0.2375, 1.275, 0.285, 1.32, 0.33, 1.3675, 0.3775, 1.415, 0.425, 1.4625, 0.4725, 1.51, 0.52, 1.5575, 0.5675, 1.605, 0.615, 1.65, 0.66, 1.6975, 0.7075, 1.745, 0.755, 1.7925, 0.8025, 1.84, 0.85, 1.8875, 0.8975, 1.935, 0.945],
  "SoftwareVersions": "syngo MR E11",
  "SpacingBetweenSlices": 3,
  "StationName": "AWP66061",
  "TaskName": "dimension",
  "TotalReadoutTime": 0.018975,
  "TxRefAmp": 217.767,
  "dcmmeta_affine": [
    [-2.997014045715332, -0.003661645343527198, 0.13376666605472565, 107.55628204345703],
    [-0.02823365479707718, 2.9486708641052246, -0.5518540143966675, -89.15263366699219],
    [0.1308043897151947, 0.5525636672973633, 2.945770502090454, -67.41755676269531],
    [0.0, 0.0, 0.0, 1.0]
],
  "dcmmeta_reorient_transform": [
    [0.0, -1.0, 0.0, 69.0],
    [1.0, 0.0, 0.0, 0.0],
    [0.0, 0.0, -1.0, 41.0],
    [0.0, 0.0, 0.0, 1.0]
],
  "dcmmeta_shape": [70, 70, 42, 437],
  "dcmmeta_slice_dim": 2,
  "dcmmeta_version": 0.6,
  "global": {
    "const": {
      "AcquisitionMatrix": [70, 0, 0, 70],
      "AngioFlag": "N",
      "BitsAllocated": 16,
      "BitsStored": 12,
      "BodyPartExamined": "HEAD",
      "Columns": 490,
      "EchoNumbers": 1,
      "EchoTime": 22.0,
      "EchoTrainLength": 35,
      "FlipAngle": 90.0,
      "HighBit": 11,
      "ImageOrientationPatient": [0.99900467531266, 0.00941121849746, 0.04360146407915, -0.0012205484505, 0.98289029452861, -0.1841878909781],
      "ImagePositionPatient": [-741.39206040124, -716.8295948241, 180.05537374628],
      "ImageType": [
        "ORIGINAL",
        "PRIMARY",
        "M",
        "ND",
        "NORM",
        "MOSAIC"
],
      "ImagedNucleus": "1H",
      "ImagingFrequency": 123.254646,
      "InPlanePhaseEncodingDirection": "COL",
      "MRAcquisitionType": "2D",
      "MagneticFieldStrength": 3.0,
      "Manufacturer": "SIEMENS",
      "ManufacturerModelName": "Prisma",
      "Modality": "MR",
      "NumberOfAverages": 1.0,
      "NumberOfPhaseEncodingSteps": 70,
      "PercentPhaseFieldOfView": 100.0,
      "PercentSampling": 100.0,
      "PerformedProcedureStepStartTime": "085104.011000",
      "PhotometricInterpretation": "MONOCHROME2",
      "PixelBandwidth": 2165.0,
      "PixelRepresentation": 0,
      "PixelSpacing": [3.0, 3.0],
      "ProtocolName": "BOLD_ep2d_3x3x3_dimension2",
      "RepetitionTime": 2000.0,
      "Rows": 490,
      "SAR": 0.11566879860341,
      "SamplesPerPixel": 1,
      "ScanOptions": "FS",
      "ScanningSequence": "EP",
      "SequenceName": "*epfid2d1_70",
      "SequenceVariant": "SK",
      "SeriesDescription": "BOLD_ep2d_3x3x3_dimension2",
      "SeriesNumber": 13,
      "SeriesTime": "100257.803000",
      "SliceLocation": 77.996678948578,
      "SliceThickness": 3.0,
      "SmallestImagePixelValue": 0,
      "SoftwareVersions": "syngo MR E11",
      "SpacingBetweenSlices": 2.9999999943022,
      "SpecificCharacterSet": "ISO_IR 100",
      "StudyID": "1",
      "StudyTime": "085103.891000",
      "TransmitCoilName": "Body",
      "VariableFlipAngleFlag": "N",
      "WindowCenterWidthExplanation": "Algo1",
      "dBdt": 0.0},
    "slices": {}
  },
  "time": {
    "samples": {
      "AcquisitionNumber": [1, 2, 3, 4, 5, 6, 7, 8, 9, 10, 11, 12, 13, 14, 15, 16, 17, 18, 19, 20, 21, 22, 23, 24, 25, 26, 27, 28, 29, 30, 31, 32, 33, 34, 35, 36, 37, 38, 39, 40, 41, 42, 43, 44, 45, 46, 47, 48, 49, 50, 51, 52, 53, 54, 55, 56, 57, 58, 59, 60, 61, 62, 63, 64, 65, 66, 67, 68, 69, 70, 71, 72, 73, 74, 75, 76, 77, 78, 79, 80, 81, 82, 83, 84, 85, 86, 87, 88, 89, 90, 91, 92, 93, 94, 95, 96, 97, 98, 99, 100, 101, 102, 103, 104, 105, 106, 107, 108, 109, 110, 111, 112, 113, 114, 115, 116, 117, 118, 119, 120, 121, 122, 123, 124, 125, 126, 127, 128, 129, 130, 131, 132, 133, 134, 135, 136, 137, 138, 139, 140, 141, 142, 143, 144, 145, 146, 147, 148, 149, 150, 151, 152, 153, 154, 155, 156, 157, 158, 159, 160, 161, 162, 163, 164, 165, 166, 167, 168, 169, 170, 171, 172, 173, 174, 175, 176, 177, 178, 179, 180, 181, 182, 183, 184, 185, 186, 187, 188, 189, 190, 191, 192, 193, 194, 195, 196, 197, 198, 199, 200, 201, 202, 203, 204, 205, 206, 207, 208, 209, 210, 211, 212, 213, 214, 215, 216, 217, 218, 219, 220, 221, 222, 223, 224, 225, 226, 227, 228, 229, 230, 231, 232, 233, 234, 235, 236, 237, 238, 239, 240, 241, 242, 243, 244, 245, 246, 247, 248, 249, 250, 251, 252, 253, 254, 255, 256, 257, 258, 259, 260, 261, 262, 263, 264, 265, 266, 267, 268, 269, 270, 271, 272, 273, 274, 275, 276, 277, 278, 279, 280, 281, 282, 283, 284, 285, 286, 287, 288, 289, 290, 291, 292, 293, 294, 295, 296, 297, 298, 299, 300, 301, 302, 303, 304, 305, 306, 307, 308, 309, 310, 311, 312, 313, 314, 315, 316, 317, 318, 319, 320, 321, 322, 323, 324, 325, 326, 327, 328, 329, 330, 331, 332, 333, 334, 335, 336, 337, 338, 339, 340, 341, 342, 343, 344, 345, 346, 347, 348, 349, 350, 351, 352, 353, 354, 355, 356, 357, 358, 359, 360, 361, 362, 363, 364, 365, 366, 367, 368, 369, 370, 371, 372, 373, 374, 375, 376, 377, 378, 379, 380, 381, 382, 383, 384, 385, 386, 387, 388, 389, 390, 391, 392, 393, 394, 395, 396, 397, 398, 399, 400, 401, 402, 403, 404, 405, 406, 407, 408, 409, 410, 411, 412, 413, 414, 415, 416, 417, 418, 419, 420, 421, 422, 423, 424, 425, 426, 427, 428, 429, 430, 431, 432, 433, 434, 435, 436, 437],
      "AcquisitionTime": ["100238.692500", "100240.692500", "100242.692500", "100244.692500", "100246.692500", "100248.692500", "100250.692500", "100252.692500", "100254.692500", "100256.692500", "100258.692500", "100300.692500", "100302.692500", "100304.692500", "100306.692500", "100308.692500", "100310.692500", "100312.692500", "100314.692500", "100316.692500", "100318.692500", "100320.692500", "100322.692500", "100324.692500", "100326.692500", "100328.692500", "100330.692500", "100332.692500", "100334.692500", "100336.692500", "100338.692500", "100340.692500", "100342.692500", "100344.692500", "100346.692500", "100348.692500", "100350.692500", "100352.692500", "100354.692500", "100356.692500", "100358.692500", "100400.692500", "100402.692500", "100404.692500", "100406.692500", "100408.692500", "100410.692500", "100412.692500", "100414.692500", "100416.692500", "100418.692500", "100420.692500", "100422.692500", "100424.692500", "100426.692500", "100428.692500", "100430.692500", "100432.692500", "100434.692500", "100436.692500", "100438.692500", "100440.692500", "100442.692500", "100444.692500", "100446.692500", "100448.692500", "100450.692500", "100452.692500", "100454.692500", "100456.692500", "100458.692500", "100500.692500", "100502.692500", "100504.692500", "100506.692500", "100508.692500", "100510.692500", "100512.692500", "100514.692500", "100516.692500", "100518.692500", "100520.692500", "100522.692500", "100524.692500", "100526.692500", "100528.692500", "100530.692500", "100532.692500", "100534.692500", "100536.692500", "100538.692500", "100540.692500", "100542.692500", "100544.692500", "100546.692500", "100548.692500", "100550.692500", "100552.692500", "100554.692500", "100556.692500", "100558.692500", "100600.692500", "100602.692500", "100604.692500", "100606.692500", "100608.692500", "100610.692500", "100612.692500", "100614.692500", "100616.692500", "100618.692500", "100620.692500", "100622.692500", "100624.692500", "100626.692500", "100628.692500", "100630.692500", "100632.692500", "100634.692500", "100636.692500", "100638.692500", "100640.692500", "100642.692500", "100644.692500", "100646.692500", "100648.692500", "100650.692500", "100652.692500", "100654.692500", "100656.692500", "100658.692500", "100700.692500", "100702.692500", "100704.692500", "100706.692500", "100708.692500", "100710.692500", "100712.692500", "100714.692500", "100716.692500", "100718.692500", "100720.692500", "100722.692500", "100724.692500", "100726.692500", "100728.692500", "100730.692500", "100732.692500", "100734.692500", "100736.692500", "100738.692500", "100740.692500", "100742.692500", "100744.692500", "100746.692500", "100748.692500", "100750.692500", "100752.692500", "100754.692500", "100756.692500", "100758.692500", "100800.692500", "100802.692500", "100804.692500", "100806.692500", "100808.692500", "100810.692500", "100812.692500", "100814.692500", "100816.692500", "100818.692500", "100820.692500", "100822.692500", "100824.692500", "100826.692500", "100828.692500", "100830.692500", "100832.692500", "100834.692500", "100836.692500", "100838.692500", "100840.692500", "100842.692500", "100844.692500", "100846.692500", "100848.692500", "100850.692500", "100852.692500", "100854.692500", "100856.692500", "100858.692500", "100900.692500", "100902.692500", "100904.692500", "100906.692500", "100908.692500", "100910.692500", "100912.692500", "100914.692500", "100916.692500", "100918.692500", "100920.692500", "100922.692500", "100924.692500", "100926.692500", "100928.692500", "100930.692500", "100932.692500", "100934.692500", "100936.692500", "100938.692500", "100940.692500", "100942.692500", "100944.692500", "100946.692500", "100948.692500", "100950.692500", "100952.692500", "100954.692500", "100956.692500", "100958.692500", "101000.692500", "101002.692500", "101004.692500", "101006.692500", "101008.692500", "101010.692500", "101012.692500", "101014.692500", "101016.692500", "101018.692500", "101020.692500", "101022.692500", "101024.692500", "101026.692500", "101028.692500", "101030.692500", "101032.692500", "101034.692500", "101036.692500", "101038.692500", "101040.692500", "101042.692500", "101044.692500", "101046.692500", "101048.692500", "101050.692500", "101052.692500", "101054.692500", "101056.692500", "101058.692500", "101100.692500", "101102.692500", "101104.692500", "101106.692500", "101108.692500", "101110.692500", "101112.692500", "101114.692500", "101116.692500", "101118.692500", "101120.692500", "101122.692500", "101124.692500", "101126.692500", "101128.692500", "101130.692500", "101132.692500", "101134.692500", "101136.692500", "101138.692500", "101140.692500", "101142.692500", "101144.692500", "101146.692500", "101148.692500", "101150.692500", "101152.692500", "101154.692500", "101156.692500", "101158.692500", "101200.692500", "101202.692500", "101204.692500", "101206.692500", "101208.692500", "101210.692500", "101212.692500", "101214.692500", "101216.692500", "101218.692500", "101220.692500", "101222.692500", "101224.692500", "101226.692500", "101228.692500", "101230.692500", "101232.692500", "101234.692500", "101236.692500", "101238.692500", "101240.692500", "101242.692500", "101244.692500", "101246.692500", "101248.692500", "101250.692500", "101252.692500", "101254.692500", "101256.692500", "101258.692500", "101300.692500", "101302.692500", "101304.692500", "101306.692500", "101308.692500", "101310.692500", "101312.692500", "101314.692500", "101316.692500", "101318.692500", "101320.692500", "101322.692500", "101324.692500", "101326.692500", "101328.692500", "101330.692500", "101332.692500", "101334.692500", "101336.692500", "101338.692500", "101340.692500", "101342.692500", "101344.692500", "101346.692500", "101348.692500", "101350.692500", "101352.692500", "101354.692500", "101356.692500", "101358.692500", "101400.692500", "101402.692500", "101404.692500", "101406.692500", "101408.692500", "101410.692500", "101412.692500", "101414.692500", "101416.692500", "101418.692500", "101420.692500", "101422.692500", "101424.692500", "101426.692500", "101428.692500", "101430.692500", "101432.692500", "101434.692500", "101436.692500", "101438.692500", "101440.692500", "101442.692500", "101444.692500", "101446.692500", "101448.692500", "101450.692500", "101452.692500", "101454.692500", "101456.692500", "101458.692500", "101500.692500", "101502.692500", "101504.692500", "101506.692500", "101508.692500", "101510.692500", "101512.692500", "101514.692500", "101516.692500", "101518.692500", "101520.692500", "101522.692500", "101524.692500", "101526.692500", "101528.692500", "101530.692500", "101532.692500", "101534.692500", "101536.692500", "101538.692500", "101540.692500", "101542.692500", "101544.692500", "101546.692500", "101548.692500", "101550.692500", "101552.692500", "101554.692500", "101556.692500", "101558.692500", "101600.692500", "101602.692500", "101604.692500", "101606.692500", "101608.692500", "101610.692500", "101612.692500", "101614.692500", "101616.692500", "101618.692500", "101620.692500", "101622.692500", "101624.692500", "101626.692500", "101628.692500", "101630.692500", "101632.692500", "101634.692500", "101636.692500", "101638.692500", "101640.692500", "101642.692500", "101644.692500", "101646.692500", "101648.692500", "101650.692500", "101652.692500", "101654.692500", "101656.692500", "101658.692500", "101700.692500", "101702.692500", "101704.692500", "101706.692500", "101708.692500", "101710.692500"],
      "ContentTime": ["100257.806000", "100257.810000", "100257.812000", "100257.828000", "100257.831000", "100257.834000", "100257.837000", "100257.839000", "100257.842000", "100337.801000", "100337.804000", "100337.807000", "100337.810000", "100337.812000", "100337.815000", "100337.818000", "100337.820000", "100337.823000", "100337.826000", "100337.828000", "100337.831000", "100337.833000", "100337.836000", "100337.839000", "100337.841000", "100337.844000", "100337.846000", "100337.849000", "100337.852000", "100417.800000", "100417.803000", "100417.806000", "100417.809000", "100417.811000", "100417.814000", "100417.817000", "100417.819000", "100417.822000", "100417.824000", "100417.839000", "100417.842000", "100417.844000", "100417.847000", "100417.850000", "100417.852000", "100417.855000", "100417.858000", "100417.860000", "100417.863000", "100457.802000", "100457.804000", "100457.807000", "100457.810000", "100457.826000", "100457.828000", "100457.831000", "100457.834000", "100457.836000", "100457.839000", "100457.841000", "100457.844000", "100457.847000", "100457.849000", "100457.852000", "100457.855000", "100457.857000", "100457.860000", "100457.862000", "100457.865000", "100537.801000", "100537.804000", "100537.807000", "100537.810000", "100537.812000", "100537.815000", "100537.818000", "100537.821000", "100537.824000", "100537.826000", "100537.829000", "100537.832000", "100537.834000", "100537.837000", "100537.839000", "100537.842000", "100537.845000", "100537.848000", "100537.850000", "100537.853000", "100617.800000", "100617.803000", "100617.806000", "100617.809000", "100617.811000", "100617.814000", "100617.816000", "100617.819000", "100617.822000", "100617.824000", "100617.827000", "100617.830000", "100617.832000", "100617.835000", "100617.838000", "100617.840000", "100617.843000", "100617.846000", "100617.848000", "100617.851000", "100657.803000", "100657.848000", "100657.851000", "100657.853000", "100657.856000", "100657.859000", "100657.861000", "100657.864000", "100657.866000", "100657.869000", "100657.872000", "100657.875000", "100657.877000", "100657.880000", "100657.886000", "100657.888000", "100657.891000", "100657.894000", "100657.896000", "100657.899000", "100737.801000", "100737.804000", "100737.807000", "100737.810000", "100737.812000", "100737.815000", "100737.818000", "100737.820000", "100737.823000", "100737.826000", "100737.828000", "100737.831000", "100737.834000", "100737.836000", "100737.839000", "100737.841000", "100737.844000", "100737.847000", "100737.849000", "100737.852000", "100817.802000", "100817.804000", "100817.807000", "100817.810000", "100817.812000", "100817.815000", "100817.818000", "100817.820000", "100817.823000", "100817.826000", "100817.828000", "100817.831000", "100817.833000", "100817.836000", "100817.839000", "100817.841000", "100817.844000", "100817.847000", "100817.849000", "100817.852000", "100857.801000", "100857.803000", "100857.806000", "100857.809000", "100857.811000", "100857.814000", "100857.817000", "100857.819000", "100857.822000", "100857.824000", "100857.827000", "100857.830000", "100857.832000", "100857.835000", "100857.837000", "100857.840000", "100857.843000", "100857.845000", "100857.848000", "100857.851000", "100937.802000", "100937.804000", "100937.807000", "100937.810000", "100937.812000", "100937.815000", "100937.818000", "100937.820000", "100937.823000", "100937.826000", "100937.828000", "100937.831000", "100937.833000", "100937.836000", "100937.839000", "100937.841000", "100937.844000", "100937.847000", "100937.849000", "100937.852000", "101017.802000", "101017.805000", "101017.807000", "101017.810000", "101017.813000", "101017.815000", "101017.818000", "101017.821000", "101017.823000", "101017.826000", "101017.833000", "101017.835000", "101017.854000", "101017.857000", "101017.860000", "101017.862000", "101017.865000", "101017.868000", "101017.870000", "101017.873000", "101057.801000", "101057.803000", "101057.806000", "101057.809000", "101057.811000", "101057.814000", "101057.817000", "101057.819000", "101057.822000", "101057.825000", "101057.827000", "101057.830000", "101057.833000", "101057.835000", "101057.838000", "101057.840000", "101057.843000", "101057.846000", "101057.848000", "101057.851000", "101137.802000", "101137.805000", "101137.807000", "101137.810000", "101137.812000", "101137.815000", "101137.818000", "101137.821000", "101137.823000", "101137.826000", "101137.828000", "101137.831000", "101137.834000", "101137.836000", "101137.839000", "101137.842000", "101137.844000", "101137.847000", "101137.850000", "101137.852000", "101217.802000", "101217.804000", "101217.807000", "101217.810000", "101217.812000", "101217.815000", "101217.818000", "101217.820000", "101217.823000", "101217.826000", "101217.828000", "101217.831000", "101217.833000", "101217.836000", "101217.839000", "101217.841000", "101217.844000", "101217.847000", "101217.849000", "101217.852000", "101257.802000", "101257.805000", "101257.807000", "101257.810000", "101257.812000", "101257.815000", "101257.818000", "101257.820000", "101257.823000", "101257.826000", "101257.828000", "101257.831000", "101257.834000", "101257.836000", "101257.839000", "101257.842000", "101257.844000", "101257.847000", "101257.850000", "101257.852000", "101337.801000", "101337.875000", "101337.878000", "101337.880000", "101337.883000", "101337.886000", "101337.888000", "101337.891000", "101337.894000", "101337.896000", "101337.899000", "101337.902000", "101337.904000", "101337.907000", "101337.910000", "101337.912000", "101337.915000", "101337.918000", "101337.920000", "101337.923000", "101417.802000", "101417.804000", "101417.807000", "101417.810000", "101417.812000", "101417.815000", "101417.818000", "101417.820000", "101417.823000", "101417.826000", "101417.828000", "101417.831000", "101417.834000", "101417.836000", "101417.839000", "101417.841000", "101417.844000", "101417.847000", "101417.849000", "101417.852000", "101457.802000", "101457.805000", "101457.807000", "101457.810000", "101457.812000", "101457.815000", "101457.818000", "101457.820000", "101457.823000", "101457.826000", "101457.828000", "101457.831000", "101457.834000", "101457.836000", "101457.839000", "101457.842000", "101457.844000", "101457.847000", "101457.850000", "101457.852000", "101537.801000", "101537.804000", "101537.806000", "101537.809000", "101537.812000", "101537.814000", "101537.817000", "101537.820000", "101537.822000", "101537.825000", "101537.828000", "101537.830000", "101537.833000", "101537.836000", "101537.838000", "101537.841000", "101537.844000", "101537.846000", "101537.849000", "101537.852000", "101617.802000", "101617.804000", "101617.807000", "101617.810000", "101617.812000", "101617.815000", "101617.818000", "101617.821000", "101617.823000", "101617.826000", "101617.829000", "101617.831000", "101617.834000", "101617.837000", "101617.839000", "101617.842000", "101617.845000", "101617.847000", "101617.850000", "101617.853000", "101657.802000", "101657.805000", "101657.807000", "101657.810000", "101657.813000", "101657.815000", "101657.818000", "101657.821000", "101657.823000", "101657.826000", "101657.829000", "101657.831000", "101657.834000", "101657.837000", "101657.840000", "101657.842000", "101657.845000", "101657.848000", "101657.850000", "101657.853000", "101712.178000", "101712.181000", "101712.184000", "101712.187000", "101712.189000", "101712.192000", "101712.195000", "101712.197000"],
      "InstanceCreationTime": ["100257.806000", "100257.810000", "100257.812000", "100257.828000", "100257.831000", "100257.834000", "100257.837000", "100257.839000", "100257.842000", "100337.801000", "100337.804000", "100337.807000", "100337.810000", "100337.812000", "100337.815000", "100337.818000", "100337.820000", "100337.823000", "100337.826000", "100337.828000", "100337.831000", "100337.833000", "100337.836000", "100337.839000", "100337.841000", "100337.844000", "100337.846000", "100337.849000", "100337.852000", "100417.800000", "100417.803000", "100417.806000", "100417.809000", "100417.811000", "100417.814000", "100417.817000", "100417.819000", "100417.822000", "100417.824000", "100417.839000", "100417.842000", "100417.844000", "100417.847000", "100417.850000", "100417.852000", "100417.855000", "100417.858000", "100417.860000", "100417.863000", "100457.802000", "100457.804000", "100457.807000", "100457.810000", "100457.826000", "100457.828000", "100457.831000", "100457.834000", "100457.836000", "100457.839000", "100457.841000", "100457.844000", "100457.847000", "100457.849000", "100457.852000", "100457.855000", "100457.857000", "100457.860000", "100457.862000", "100457.865000", "100537.801000", "100537.804000", "100537.807000", "100537.810000", "100537.812000", "100537.815000", "100537.818000", "100537.821000", "100537.824000", "100537.826000", "100537.829000", "100537.832000", "100537.834000", "100537.837000", "100537.839000", "100537.842000", "100537.845000", "100537.848000", "100537.850000", "100537.853000", "100617.800000", "100617.803000", "100617.806000", "100617.809000", "100617.811000", "100617.814000", "100617.816000", "100617.819000", "100617.822000", "100617.824000", "100617.827000", "100617.830000", "100617.832000", "100617.835000", "100617.838000", "100617.840000", "100617.843000", "100617.846000", "100617.848000", "100617.851000", "100657.803000", "100657.848000", "100657.851000", "100657.853000", "100657.856000", "100657.859000", "100657.861000", "100657.864000", "100657.866000", "100657.869000", "100657.872000", "100657.875000", "100657.877000", "100657.880000", "100657.886000", "100657.888000", "100657.891000", "100657.894000", "100657.896000", "100657.899000", "100737.801000", "100737.804000", "100737.807000", "100737.810000", "100737.812000", "100737.815000", "100737.818000", "100737.820000", "100737.823000", "100737.826000", "100737.828000", "100737.831000", "100737.834000", "100737.836000", "100737.839000", "100737.841000", "100737.844000", "100737.847000", "100737.849000", "100737.852000", "100817.802000", "100817.804000", "100817.807000", "100817.810000", "100817.812000", "100817.815000", "100817.818000", "100817.820000", "100817.823000", "100817.826000", "100817.828000", "100817.831000", "100817.833000", "100817.836000", "100817.839000", "100817.841000", "100817.844000", "100817.847000", "100817.849000", "100817.852000", "100857.801000", "100857.803000", "100857.806000", "100857.809000", "100857.811000", "100857.814000", "100857.817000", "100857.819000", "100857.822000", "100857.824000", "100857.827000", "100857.830000", "100857.832000", "100857.835000", "100857.837000", "100857.840000", "100857.843000", "100857.845000", "100857.848000", "100857.851000", "100937.802000", "100937.804000", "100937.807000", "100937.810000", "100937.812000", "100937.815000", "100937.818000", "100937.820000", "100937.823000", "100937.826000", "100937.828000", "100937.831000", "100937.833000", "100937.836000", "100937.839000", "100937.841000", "100937.844000", "100937.847000", "100937.849000", "100937.852000", "101017.802000", "101017.805000", "101017.807000", "101017.810000", "101017.813000", "101017.815000", "101017.818000", "101017.821000", "101017.823000", "101017.826000", "101017.833000", "101017.835000", "101017.854000", "101017.857000", "101017.860000", "101017.862000", "101017.865000", "101017.868000", "101017.870000", "101017.873000", "101057.801000", "101057.803000", "101057.806000", "101057.809000", "101057.811000", "101057.814000", "101057.817000", "101057.819000", "101057.822000", "101057.825000", "101057.827000", "101057.830000", "101057.833000", "101057.835000", "101057.838000", "101057.840000", "101057.843000", "101057.846000", "101057.848000", "101057.851000", "101137.802000", "101137.805000", "101137.807000", "101137.810000", "101137.812000", "101137.815000", "101137.818000", "101137.821000", "101137.823000", "101137.826000", "101137.828000", "101137.831000", "101137.834000", "101137.836000", "101137.839000", "101137.842000", "101137.844000", "101137.847000", "101137.850000", "101137.852000", "101217.802000", "101217.804000", "101217.807000", "101217.810000", "101217.812000", "101217.815000", "101217.818000", "101217.820000", "101217.823000", "101217.826000", "101217.828000", "101217.831000", "101217.833000", "101217.836000", "101217.839000", "101217.841000", "101217.844000", "101217.847000", "101217.849000", "101217.852000", "101257.802000", "101257.805000", "101257.807000", "101257.810000", "101257.812000", "101257.815000", "101257.818000", "101257.820000", "101257.823000", "101257.826000", "101257.828000", "101257.831000", "101257.834000", "101257.836000", "101257.839000", "101257.842000", "101257.844000", "101257.847000", "101257.850000", "101257.852000", "101337.801000", "101337.875000", "101337.878000", "101337.880000", "101337.883000", "101337.886000", "101337.888000", "101337.891000", "101337.894000", "101337.896000", "101337.899000", "101337.902000", "101337.904000", "101337.907000", "101337.910000", "101337.912000", "101337.915000", "101337.918000", "101337.920000", "101337.923000", "101417.802000", "101417.804000", "101417.807000", "101417.810000", "101417.812000", "101417.815000", "101417.818000", "101417.820000", "101417.823000", "101417.826000", "101417.828000", "101417.831000", "101417.834000", "101417.836000", "101417.839000", "101417.841000", "101417.844000", "101417.847000", "101417.849000", "101417.852000", "101457.802000", "101457.805000", "101457.807000", "101457.810000", "101457.812000", "101457.815000", "101457.818000", "101457.820000", "101457.823000", "101457.826000", "101457.828000", "101457.831000", "101457.834000", "101457.836000", "101457.839000", "101457.842000", "101457.844000", "101457.847000", "101457.850000", "101457.852000", "101537.801000", "101537.804000", "101537.806000", "101537.809000", "101537.812000", "101537.814000", "101537.817000", "101537.820000", "101537.822000", "101537.825000", "101537.828000", "101537.830000", "101537.833000", "101537.836000", "101537.838000", "101537.841000", "101537.844000", "101537.846000", "101537.849000", "101537.852000", "101617.802000", "101617.804000", "101617.807000", "101617.810000", "101617.812000", "101617.815000", "101617.818000", "101617.821000", "101617.823000", "101617.826000", "101617.829000", "101617.831000", "101617.834000", "101617.837000", "101617.839000", "101617.842000", "101617.845000", "101617.847000", "101617.850000", "101617.853000", "101657.802000", "101657.805000", "101657.807000", "101657.810000", "101657.813000", "101657.815000", "101657.818000", "101657.821000", "101657.823000", "101657.826000", "101657.829000", "101657.831000", "101657.834000", "101657.837000", "101657.840000", "101657.842000", "101657.845000", "101657.848000", "101657.850000", "101657.853000", "101712.178000", "101712.181000", "101712.184000", "101712.187000", "101712.189000", "101712.192000", "101712.195000", "101712.197000"],
