{
  "AcquisitionMatrixPE": 70,
  "AcquisitionNumber": 1,
  "AcquisitionTime": "11:48:59.650000",
  "BandwidthPerPixelPhaseEncode": 51.948,
  "BaseResolution": 70,
  "BodyPartExamined": "HEAD",
  "CoilCombinationMethod": "Sum of Squares",
  "ConsistencyInfo": "N4_VE11C_LATEST_20160120",
  "ConversionSoftware": "dcm2niix",
  "ConversionSoftwareVersion": "v1.0.20220720",
  "DerivedVendorReportedEchoSpacing": 0.000550001,
  "DeviceSerialNumber": "66061",
  "DwellTime": 3.3e-06,
  "EchoTime": 0.022,
  "EchoTrainLength": 35,
  "EffectiveEchoSpacing": 0.000275,
  "FlipAngle": 90,
  "HeudiconvVersion": "1.1.1",
  "ImageOrientationPatientDICOM": [0.999013, 0.0108882, 0.0430669, -0.00122054, 0.975857, -0.218405],
  "ImageOrientationText": "Tra>Cor(-12.6)>Sag(2.5)",
  "ImageType": [
    "ORIGINAL",
    "PRIMARY",
    "M",
    "ND",
    "NORM",
    "MOSAIC"
],
  "ImagingFrequency": 123.255,
  "InPlanePhaseEncodingDirectionDICOM": "COL",
  "InstitutionAddress": "Street StreetNo,City/1c4204/,District,KR,ZIP",
  "InstitutionName": "SKKU",
  "InstitutionalDepartmentName": "Department",
  "MRAcquisitionType": "2D",
  "MagneticFieldStrength": 3,
  "Manufacturer": "Siemens",
  "ManufacturersModelName": "Prisma",
  "MatrixCoilMode": "GRAPPA",
  "Modality": "MR",
  "NonlinearGradientCorrection": false,
  "ParallelReductionFactorInPlane": 2,
  "PartialFourier": 1,
  "PatientPosition": "HFS",
  "PercentPhaseFOV": 100,
  "PercentSampling": 100,
  "PhaseEncodingDirection": "j-",
  "PhaseEncodingSteps": 70,
  "PhaseResolution": 1,
  "PixelBandwidth": 2165,
  "ProcedureStepDescription": "Head^PI:Others",
  "ProtocolName": "BOLD_ep2d_3x3x3_response1",
  "PulseSequenceDetails": "%SiemensSeq%\\ep2d_pace",
  "ReceiveCoilActiveElements": "HC1-7",
  "ReceiveCoilName": "HeadNeck_64",
  "ReconMatrixPE": 70,
  "RefLinesPE": 24,
  "RepetitionTime": 2,
  "SAR": 0.118342,
  "ScanOptions": "FS",
  "ScanningSequence": "EP",
  "SequenceName": "*epfid2d1_70",
  "SequenceVariant": "SK",
  "SeriesDescription": "BOLD_ep2d_3x3x3_response1",
  "SeriesNumber": 4,
  "ShimSetting": [5047, 3729, 4455, 347, -66, -10, -24, 46],
  "SliceThickness": 3,
  "SliceTiming": [0.99, 0, 1.0375, 0.0475, 1.085, 0.095, 1.1325, 0.1425, 1.1775, 0.1875, 1.225, 0.235, 1.2725, 0.2825, 1.32, 0.33, 1.3675, 0.3775, 1.415, 0.425, 1.46, 0.4725, 1.5075, 0.5175, 1.555, 0.565, 1.6025, 0.6125, 1.65, 0.66, 1.6975, 0.7075, 1.745, 0.755, 1.79, 0.8025, 1.8375, 0.8475, 1.885, 0.895, 1.9325, 0.9425],
  "SoftwareVersions": "syngo MR E11",
  "SpacingBetweenSlices": 3,
  "StationName": "AWP66061",
  "TaskName": "response",
  "TotalReadoutTime": 0.018975,
  "TxRefAmp": 239.322,
  "dcmmeta_affine": [
    [-2.9970386028289795, -0.003661606926470995, 0.13321548700332642, 102.74732208251953],
    [-0.03266466408967972, 2.927572250366211, -0.654410719871521, -87.98460388183594],
    [0.12920059263706207, 0.6552152037620544, 2.92472243309021, -70.40921783447266],
    [0.0, 0.0, 0.0, 1.0]
],
  "dcmmeta_reorient_transform": [
    [0.0, -1.0, 0.0, 69.0],
    [1.0, 0.0, 0.0, 0.0],
    [0.0, 0.0, -1.0, 41.0],
    [0.0, 0.0, 0.0, 1.0]
],
  "dcmmeta_shape": [70, 70, 42, 341],
  "dcmmeta_slice_dim": 2,
  "dcmmeta_version": 0.6,
  "global": {
    "const": {
      "AcquisitionMatrix": [70, 0, 0, 70],
      "AngioFlag": "N",
      "BitsAllocated": 16,
      "BitsStored": 12,
      "BodyPartExamined": "HEAD",
      "Columns": 490,
      "EchoNumbers": 1,
      "EchoTime": 22.0,
      "EchoTrainLength": 35,
      "FlipAngle": 90.0,
      "HighBit": 11,
      "ImageOrientationPatient": [0.99901285879527, 0.01088822138832, 0.04306686193228, -0.001220535668, 0.97585743621826, -0.218405069699],
      "ImagePositionPatient": [-736.5656705059, -708.83681276588, 205.1773165342],
      "ImageType": [
        "ORIGINAL",
        "PRIMARY",
        "M",
        "ND",
        "NORM",
        "MOSAIC"
],
      "ImagedNucleus": "1H",
      "ImagingFrequency": 123.25462,
      "InPlanePhaseEncodingDirection": "COL",
      "MRAcquisitionType": "2D",
      "MagneticFieldStrength": 3.0,
      "Manufacturer": "SIEMENS",
      "ManufacturerModelName": "Prisma",
      "Modality": "MR",
      "NumberOfAverages": 1.0,
      "NumberOfPhaseEncodingSteps": 70,
      "PercentPhaseFieldOfView": 100.0,
      "PercentSampling": 100.0,
      "PerformedProcedureStepStartTime": "114228.565000",
      "PhotometricInterpretation": "MONOCHROME2",
      "PixelBandwidth": 2165.0,
      "PixelRepresentation": 0,
      "PixelSpacing": [3.0, 3.0],
      "ProtocolName": "BOLD_ep2d_3x3x3_response1",
      "RepetitionTime": 2000.0,
      "Rows": 490,
      "SAR": 0.11834242351986,
      "SamplesPerPixel": 1,
      "ScanOptions": "FS",
      "ScanningSequence": "EP",
      "SequenceName": "*epfid2d1_70",
      "SequenceVariant": "SK",
      "SeriesDescription": "BOLD_ep2d_3x3x3_response1",
      "SeriesNumber": 4,
      "SeriesTime": "114919.331000",
      "SliceLocation": 78.112733312557,
      "SliceThickness": 3.0,
      "SmallestImagePixelValue": 0,
      "SoftwareVersions": "syngo MR E11",
      "SpacingBetweenSlices": 3.0000001009566,
      "SpecificCharacterSet": "ISO_IR 100",
      "StudyID": "1",
      "StudyTime": "114228.511000",
      "TransmitCoilName": "Body",
      "VariableFlipAngleFlag": "N",
      "WindowCenterWidthExplanation": "Algo1",
      "dBdt": 0.0},
    "slices": {}
  },
  "time": {
    "samples": {
      "AcquisitionNumber": [1, 2, 3, 4, 5, 6, 7, 8, 9, 10, 11, 12, 13, 14, 15, 16, 17, 18, 19, 20, 21, 22, 23, 24, 25, 26, 27, 28, 29, 30, 31, 32, 33, 34, 35, 36, 37, 38, 39, 40, 41, 42, 43, 44, 45, 46, 47, 48, 49, 50, 51, 52, 53, 54, 55, 56, 57, 58, 59, 60, 61, 62, 63, 64, 65, 66, 67, 68, 69, 70, 71, 72, 73, 74, 75, 76, 77, 78, 79, 80, 81, 82, 83, 84, 85, 86, 87, 88, 89, 90, 91, 92, 93, 94, 95, 96, 97, 98, 99, 100, 101, 102, 103, 104, 105, 106, 107, 108, 109, 110, 111, 112, 113, 114, 115, 116, 117, 118, 119, 120, 121, 122, 123, 124, 125, 126, 127, 128, 129, 130, 131, 132, 133, 134, 135, 136, 137, 138, 139, 140, 141, 142, 143, 144, 145, 146, 147, 148, 149, 150, 151, 152, 153, 154, 155, 156, 157, 158, 159, 160, 161, 162, 163, 164, 165, 166, 167, 168, 169, 170, 171, 172, 173, 174, 175, 176, 177, 178, 179, 180, 181, 182, 183, 184, 185, 186, 187, 188, 189, 190, 191, 192, 193, 194, 195, 196, 197, 198, 199, 200, 201, 202, 203, 204, 205, 206, 207, 208, 209, 210, 211, 212, 213, 214, 215, 216, 217, 218, 219, 220, 221, 222, 223, 224, 225, 226, 227, 228, 229, 230, 231, 232, 233, 234, 235, 236, 237, 238, 239, 240, 241, 242, 243, 244, 245, 246, 247, 248, 249, 250, 251, 252, 253, 254, 255, 256, 257, 258, 259, 260, 261, 262, 263, 264, 265, 266, 267, 268, 269, 270, 271, 272, 273, 274, 275, 276, 277, 278, 279, 280, 281, 282, 283, 284, 285, 286, 287, 288, 289, 290, 291, 292, 293, 294, 295, 296, 297, 298, 299, 300, 301, 302, 303, 304, 305, 306, 307, 308, 309, 310, 311, 312, 313, 314, 315, 316, 317, 318, 319, 320, 321, 322, 323, 324, 325, 326, 327, 328, 329, 330, 331, 332, 333, 334, 335, 336, 337, 338, 339, 340, 341],
      "AcquisitionTime": ["114859.650000", "114901.650000", "114903.650000", "114905.650000", "114907.650000", "114909.650000", "114911.650000", "114913.650000", "114915.650000", "114917.650000", "114919.650000", "114921.650000", "114923.650000", "114925.650000", "114927.650000", "114929.650000", "114931.650000", "114933.650000", "114935.650000", "114937.650000", "114939.650000", "114941.650000", "114943.650000", "114945.650000", "114947.650000", "114949.650000", "114951.650000", "114953.650000", "114955.650000", "114957.650000", "114959.650000", "115001.650000", "115003.650000", "115005.650000", "115007.650000", "115009.650000", "115011.650000", "115013.650000", "115015.650000", "115017.650000", "115019.650000", "115021.650000", "115023.650000", "115025.650000", "115027.650000", "115029.650000", "115031.650000", "115033.650000", "115035.650000", "115037.650000", "115039.650000", "115041.650000", "115043.650000", "115045.650000", "115047.650000", "115049.650000", "115051.650000", "115053.650000", "115055.650000", "115057.650000", "115059.650000", "115101.650000", "115103.650000", "115105.650000", "115107.650000", "115109.650000", "115111.650000", "115113.650000", "115115.650000", "115117.650000", "115119.650000", "115121.650000", "115123.650000", "115125.650000", "115127.650000", "115129.650000", "115131.650000", "115133.650000", "115135.650000", "115137.650000", "115139.650000", "115141.650000", "115143.650000", "115145.650000", "115147.650000", "115149.650000", "115151.650000", "115153.650000", "115155.650000", "115157.650000", "115159.650000", "115201.650000", "115203.650000", "115205.650000", "115207.650000", "115209.650000", "115211.650000", "115213.650000", "115215.650000", "115217.650000", "115219.650000", "115221.650000", "115223.650000", "115225.650000", "115227.650000", "115229.650000", "115231.650000", "115233.650000", "115235.650000", "115237.650000", "115239.650000", "115241.650000", "115243.650000", "115245.650000", "115247.650000", "115249.650000", "115251.650000", "115253.650000", "115255.650000", "115257.650000", "115259.650000", "115301.650000", "115303.650000", "115305.650000", "115307.650000", "115309.650000", "115311.650000", "115313.650000", "115315.650000", "115317.650000", "115319.650000", "115321.650000", "115323.650000", "115325.650000", "115327.650000", "115329.650000", "115331.650000", "115333.650000", "115335.650000", "115337.650000", "115339.650000", "115341.650000", "115343.650000", "115345.650000", "115347.650000", "115349.650000", "115351.650000", "115353.650000", "115355.650000", "115357.650000", "115359.650000", "115401.650000", "115403.650000", "115405.650000", "115407.650000", "115409.650000", "115411.650000", "115413.650000", "115415.650000", "115417.650000", "115419.650000", "115421.650000", "115423.650000", "115425.650000", "115427.650000", "115429.650000", "115431.650000", "115433.650000", "115435.650000", "115437.650000", "115439.650000", "115441.650000", "115443.650000", "115445.650000", "115447.650000", "115449.650000", "115451.650000", "115453.650000", "115455.650000", "115457.650000", "115459.650000", "115501.650000", "115503.650000", "115505.650000", "115507.650000", "115509.650000", "115511.650000", "115513.650000", "115515.650000", "115517.650000", "115519.650000", "115521.650000", "115523.650000", "115525.650000", "115527.650000", "115529.650000", "115531.650000", "115533.650000", "115535.650000", "115537.650000", "115539.650000", "115541.650000", "115543.650000", "115545.650000", "115547.650000", "115549.650000", "115551.650000", "115553.650000", "115555.650000", "115557.650000", "115559.650000", "115601.650000", "115603.650000", "115605.650000", "115607.650000", "115609.650000", "115611.650000", "115613.650000", "115615.650000", "115617.650000", "115619.650000", "115621.650000", "115623.650000", "115625.650000", "115627.650000", "115629.650000", "115631.650000", "115633.650000", "115635.650000", "115637.650000", "115639.650000", "115641.650000", "115643.650000", "115645.650000", "115647.650000", "115649.650000", "115651.650000", "115653.650000", "115655.650000", "115657.650000", "115659.650000", "115701.650000", "115703.650000", "115705.650000", "115707.650000", "115709.650000", "115711.650000", "115713.650000", "115715.650000", "115717.650000", "115719.650000", "115721.650000", "115723.650000", "115725.650000", "115727.650000", "115729.650000", "115731.650000", "115733.650000", "115735.650000", "115737.650000", "115739.650000", "115741.650000", "115743.650000", "115745.650000", "115747.650000", "115749.650000", "115751.650000", "115753.650000", "115755.650000", "115757.650000", "115759.650000", "115801.650000", "115803.650000", "115805.650000", "115807.650000", "115809.650000", "115811.650000", "115813.650000", "115815.650000", "115817.650000", "115819.650000", "115821.650000", "115823.650000", "115825.650000", "115827.650000", "115829.650000", "115831.650000", "115833.650000", "115835.650000", "115837.650000", "115839.650000", "115841.650000", "115843.650000", "115845.650000", "115847.650000", "115849.650000", "115851.650000", "115853.650000", "115855.650000", "115857.650000", "115859.650000", "115901.650000", "115903.650000", "115905.650000", "115907.650000", "115909.650000", "115911.650000", "115913.650000", "115915.650000", "115917.650000", "115919.650000", "115921.650000", "115923.650000", "115925.650000", "115927.650000", "115929.650000", "115931.650000", "115933.650000", "115935.650000", "115937.650000", "115939.650000", "115941.650000", "115943.650000", "115945.650000", "115947.650000", "115949.650000", "115951.650000", "115953.650000", "115955.650000", "115957.650000", "115959.650000", "120001.650000", "120003.650000", "120005.650000", "120007.650000", "120009.650000", "120011.650000", "120013.650000", "120015.650000", "120017.650000", "120019.650000"],
      "ContentTime": ["114919.334000", "114919.337000", "114919.340000", "114919.354000", "114919.356000", "114919.359000", "114919.361000", "114919.364000", "114919.367000", "114959.330000", "114959.333000", "114959.336000", "114959.339000", "114959.341000", "114959.344000", "114959.347000", "114959.359000", "114959.361000", "114959.364000", "114959.367000", "114959.369000", "114959.372000", "114959.375000", "114959.377000", "114959.380000", "114959.382000", "114959.385000", "114959.388000", "114959.390000", "115039.329000", "115039.332000", "115039.335000", "115039.338000", "115039.340000", "115039.343000", "115039.355000", "115039.358000", "115039.360000", "115039.363000", "115039.366000", "115039.368000", "115039.371000", "115039.373000", "115039.376000", "115039.379000", "115039.381000", "115039.384000", "115039.387000", "115039.389000", "115119.330000", "115119.332000", "115119.335000", "115119.338000", "115119.340000", "115119.343000", "115119.346000", "115119.348000", "115119.351000", "115119.354000", "115119.356000", "115119.359000", "115119.361000", "115119.364000", "115119.367000", "115119.369000", "115119.379000", "115119.382000", "115119.385000", "115119.387000", "115159.330000", "115159.339000", "115159.341000", "115159.344000", "115159.347000", "115159.349000", "115159.352000", "115159.355000", "115159.357000", "115159.360000", "115159.362000", "115159.365000", "115159.368000", "115159.370000", "115159.373000", "115159.375000", "115159.378000", "115159.381000", "115159.383000", "115159.392000", "115239.330000", "115239.332000", "115239.335000", "115239.338000", "115239.340000", "115239.343000", "115239.346000", "115239.348000", "115239.351000", "115239.353000", "115239.356000", "115239.359000", "115239.361000", "115239.364000", "115239.367000", "115239.369000", "115239.372000", "115239.375000", "115239.377000", "115239.380000", "115319.329000", "115319.332000", "115319.335000", "115319.338000", "115319.340000", "115319.343000", "115319.346000", "115319.348000", "115319.351000", "115319.353000", "115319.356000", "115319.359000", "115319.361000", "115319.364000", "115319.367000", "115319.369000", "115319.372000", "115319.374000", "115319.377000", "115319.380000", "115359.331000", "115359.333000", "115359.336000", "115359.339000", "115359.341000", "115359.344000", "115359.347000", "115359.358000", "115359.361000", "115359.364000", "115359.366000", "115359.369000", "115359.372000", "115359.374000", "115359.377000", "115359.380000", "115359.382000", "115359.385000", "115359.388000", "115359.390000", "115439.331000", "115439.333000", "115439.336000", "115439.339000", "115439.341000", "115439.344000", "115439.347000", "115439.349000", "115439.352000", "115439.355000", "115439.357000", "115439.360000", "115439.362000", "115439.365000", "115439.368000", "115439.370000", "115439.373000", "115439.376000", "115439.378000", "115439.381000", "115519.329000", "115519.332000", "115519.335000", "115519.340000", "115519.343000", "115519.346000", "115519.348000", "115519.351000", "115519.354000", "115519.356000", "115519.359000", "115519.361000", "115519.364000", "115519.367000", "115519.369000", "115519.372000", "115519.375000", "115519.377000", "115519.380000", "115519.383000", "115559.329000", "115559.332000", "115559.335000", "115559.338000", "115559.340000", "115559.343000", "115559.346000", "115559.348000", "115559.351000", "115559.354000", "115559.356000", "115559.359000", "115559.362000", "115559.364000", "115559.367000", "115559.370000", "115559.372000", "115559.375000", "115559.377000", "115559.380000", "115639.331000", "115639.333000", "115639.336000", "115639.339000", "115639.341000", "115639.344000", "115639.347000", "115639.349000", "115639.352000", "115639.355000", "115639.357000", "115639.360000", "115639.363000", "115639.365000", "115639.368000", "115639.371000", "115639.373000", "115639.376000", "115639.379000", "115639.381000", "115719.330000", "115719.332000", "115719.335000", "115719.338000", "115719.340000", "115719.343000", "115719.346000", "115719.348000", "115719.351000", "115719.354000", "115719.356000", "115719.359000", "115719.362000", "115719.364000", "115719.367000", "115719.370000", "115719.372000", "115719.375000", "115719.377000", "115719.387000", "115759.330000", "115759.332000", "115759.335000", "115759.338000", "115759.340000", "115759.343000", "115759.346000", "115759.348000", "115759.351000", "115759.354000", "115759.356000", "115759.359000", "115759.362000", "115759.364000", "115759.367000", "115759.370000", "115759.372000", "115759.375000", "115759.378000", "115759.380000", "115839.331000", "115839.333000", "115839.336000", "115839.339000", "115839.342000", "115839.344000", "115839.347000", "115839.349000", "115839.352000", "115839.355000", "115839.358000", "115839.360000", "115839.363000", "115839.366000", "115839.368000", "115839.371000", "115839.374000", "115839.376000", "115839.379000", "115839.381000", "115859.331000", "115859.334000", "115859.336000", "115859.339000", "115859.341000", "115859.344000", "115859.347000", "115859.349000", "115859.352000", "115859.355000", "115939.330000", "115939.333000", "115939.335000", "115939.338000", "115939.341000", "115939.343000", "115939.346000", "115939.349000", "115939.351000", "115939.354000", "115939.356000", "115939.359000", "115939.362000", "115939.364000", "115939.367000", "115939.370000", "115939.372000", "115939.375000", "115939.378000", "115939.380000", "120019.329000", "120019.332000", "120019.335000", "120019.338000", "120019.340000", "120019.343000", "120019.346000", "120019.348000", "120019.351000", "120019.354000", "120019.356000", "120019.359000", "120019.362000", "120019.364000", "120019.367000", "120019.370000", "120019.372000", "120019.375000", "120019.377000", "120019.380000", "120021.565000", "120021.568000"],
      "InstanceCreationTime": ["114919.334000", "114919.337000", "114919.340000", "114919.354000", "114919.356000", "114919.359000", "114919.361000", "114919.364000", "114919.367000", "114959.330000", "114959.333000", "114959.336000", "114959.339000", "114959.341000", "114959.344000", "114959.347000", "114959.359000", "114959.361000", "114959.364000", "114959.367000", "114959.369000", "114959.372000", "114959.375000", "114959.377000", "114959.380000", "114959.382000", "114959.385000", "114959.388000", "114959.390000", "115039.329000", "115039.332000", "115039.335000", "115039.338000", "115039.340000", "115039.343000", "115039.355000", "115039.358000", "115039.360000", "115039.363000", "115039.366000", "115039.368000", "115039.371000", "115039.373000", "115039.376000", "115039.379000", "115039.381000", "115039.384000", "115039.387000", "115039.389000", "115119.330000", "115119.332000", "115119.335000", "115119.338000", "115119.340000", "115119.343000", "115119.346000", "115119.348000", "115119.351000", "115119.354000", "115119.356000", "115119.359000", "115119.361000", "115119.364000", "115119.367000", "115119.369000", "115119.379000", "115119.382000", "115119.385000", "115119.387000", "115159.330000", "115159.339000", "115159.341000", "115159.344000", "115159.347000", "115159.349000", "115159.352000", "115159.355000", "115159.357000", "115159.360000", "115159.362000", "115159.365000", "115159.368000", "115159.370000", "115159.373000", "115159.375000", "115159.378000", "115159.381000", "115159.383000", "115159.392000", "115239.330000", "115239.332000", "115239.335000", "115239.338000", "115239.340000", "115239.343000", "115239.346000", "115239.348000", "115239.351000", "115239.353000", "115239.356000", "115239.359000", "115239.361000", "115239.364000", "115239.367000", "115239.369000", "115239.372000", "115239.375000", "115239.377000", "115239.380000", "115319.329000", "115319.332000", "115319.335000", "115319.338000", "115319.340000", "115319.343000", "115319.346000", "115319.348000", "115319.351000", "115319.353000", "115319.356000", "115319.359000", "115319.361000", "115319.364000", "115319.367000", "115319.369000", "115319.372000", "115319.374000", "115319.377000", "115319.380000", "115359.331000", "115359.333000", "115359.336000", "115359.339000", "115359.341000", "115359.344000", "115359.347000", "115359.358000", "115359.361000", "115359.364000", "115359.366000", "115359.369000", "115359.372000", "115359.374000", "115359.377000", "115359.380000", "115359.382000", "115359.385000", "115359.388000", "115359.390000", "115439.331000", "115439.333000", "115439.336000", "115439.339000", "115439.341000", "115439.344000", "115439.347000", "115439.349000", "115439.352000", "115439.355000", "115439.357000", "115439.360000", "115439.362000", "115439.365000", "115439.368000", "115439.370000", "115439.373000", "115439.376000", "115439.378000", "115439.381000", "115519.329000", "115519.332000", "115519.335000", "115519.340000", "115519.343000", "115519.346000", "115519.348000", "115519.351000", "115519.354000", "115519.356000", "115519.359000", "115519.361000", "115519.364000", "115519.367000", "115519.369000", "115519.372000", "115519.375000", "115519.377000", "115519.380000", "115519.383000", "115559.329000", "115559.332000", "115559.335000", "115559.338000", "115559.340000", "115559.343000", "115559.346000", "115559.348000", "115559.351000", "115559.354000", "115559.356000", "115559.359000", "115559.362000", "115559.364000", "115559.367000", "115559.370000", "115559.372000", "115559.375000", "115559.377000", "115559.380000", "115639.331000", "115639.333000", "115639.336000", "115639.339000", "115639.341000", "115639.344000", "115639.347000", "115639.349000", "115639.352000", "115639.355000", "115639.357000", "115639.360000", "115639.363000", "115639.365000", "115639.368000", "115639.371000", "115639.373000", "115639.376000", "115639.379000", "115639.381000", "115719.330000", "115719.332000", "115719.335000", "115719.338000", "115719.340000", "115719.343000", "115719.346000", "115719.348000", "115719.351000", "115719.354000", "115719.356000", "115719.359000", "115719.362000", "115719.364000", "115719.367000", "115719.370000", "115719.372000", "115719.375000", "115719.377000", "115719.387000", "115759.330000", "115759.332000", "115759.335000", "115759.338000", "115759.340000", "115759.343000", "115759.346000", "115759.348000", "115759.351000", "115759.354000", "115759.356000", "115759.359000", "115759.362000", "115759.364000", "115759.367000", "115759.370000", "115759.372000", "115759.375000", "115759.378000", "115759.380000", "115839.331000", "115839.333000", "115839.336000", "115839.339000", "115839.342000", "115839.344000", "115839.347000", "115839.349000", "115839.352000", "115839.355000", "115839.358000", "115839.360000", "115839.363000", "115839.366000", "115839.368000", "115839.371000", "115839.374000", "115839.376000", "115839.379000", "115839.381000", "115859.331000", "115859.334000", "115859.336000", "115859.339000", "115859.341000", "115859.344000", "115859.347000", "115859.349000", "115859.352000", "115859.355000", "115939.330000", "115939.333000", "115939.335000", "115939.338000", "115939.341000", "115939.343000", "115939.346000", "115939.349000", "115939.351000", "115939.354000", "115939.356000", "115939.359000", "115939.362000", "115939.364000", "115939.367000", "115939.370000", "115939.372000", "115939.375000", "115939.378000", "115939.380000", "120019.329000", "120019.332000", "120019.335000", "120019.338000", "120019.340000", "120019.343000", "120019.346000", "120019.348000", "120019.351000", "120019.354000", "120019.356000", "120019.359000", "120019.362000", "120019.364000", "120019.367000", "120019.370000", "120019.372000", "120019.375000", "120019.377000", "120019.380000", "120021.565000", "120021.568000"],
      "InstanceNumber": [1, 2, 3, 4, 5, 6, 7, 8, 9, 10, 11, 12, 13, 14, 15, 16, 17, 18, 19, 20, 21, 22, 23, 24, 25, 26, 27, 28, 29, 30, 31, 32, 33, 34, 35, 36, 37, 38, 39, 40, 41, 42, 43, 44, 45, 46, 47, 48, 49, 50, 51, 52, 53, 54, 55, 56, 57, 58, 59, 60, 61, 62, 63, 64, 65, 66, 67, 68, 69, 70, 71, 72, 73, 74, 75, 76, 77, 78, 79, 80, 81, 82, 83, 84, 85, 86, 87, 88, 89, 90, 91, 92, 93, 94, 95, 96, 97, 98, 99, 100, 101, 102, 103, 104, 105, 106, 107, 108, 109, 110, 111, 112, 113, 114, 115, 116, 117, 118, 119, 120, 121, 122, 123, 124, 125, 126, 127, 128, 129, 130, 131, 132, 133, 134, 135, 136, 137, 138, 139, 140, 141, 142, 143, 144, 145, 146, 147, 148, 149, 150, 151, 152, 153, 154, 155, 156, 157, 158, 159, 160, 161, 162, 163, 164, 165, 166, 167, 168, 169, 170, 171, 172, 173, 174, 175, 176, 177, 178, 179, 180, 181, 182, 183, 184, 185, 186, 187, 188, 189, 190, 191, 192, 193, 194, 195, 196, 197, 198, 199, 200, 201, 202, 203, 204, 205, 206, 207, 208, 209, 210, 211, 212, 213, 214, 215, 216, 217, 218, 219, 220, 221, 222, 223, 224, 225, 226, 227, 228, 229, 230, 231, 232, 233, 234, 235, 236, 237, 238, 239, 240, 241, 242, 243, 244, 245, 246, 247, 248, 249, 250, 251, 252, 253, 254, 255, 256, 257, 258, 259, 260, 261, 262, 263, 264, 265, 266, 267, 268, 269, 270, 271, 272, 273, 274, 275, 276, 277, 278, 279, 280, 281, 282, 283, 284, 285, 286, 287, 288, 289, 290, 291, 292, 293, 294, 295, 296, 297, 298, 299, 300, 301, 302, 303, 304, 305, 306, 307, 308, 309, 310, 311, 312, 313, 314, 315, 316, 317, 318, 319, 320, 321, 322, 323, 324, 325, 326, 327, 328, 329, 330, 331, 332, 333, 334, 335, 336, 337, 338, 339, 340, 341],
      "LargestImagePixelValue": [2263, 2059, 2128, 2135, 2461, 2116, 2114, 2484, 2286, 1965, 2285, 2369, 2269, 2005, 2434, 2371, 2115, 2082, 1943, 2210, 2132, 2087, 2016, 2265, 2332, 2119, 1952, 1967, 2145, 2477, 2333, 2105, 1919, 2059, 2100, 2377, 2556, 2510, 2139, 1883, 2447, 2245, 2185, 2383, 2227, 2052, 1965, 2051, 2204, 2022, 2416, 2153, 1941, 2567, 2142, 1953, 2116, 2557, 2256, 2072, 2137, 2330, 2563, 2245, 2051, 2009, 2596, 2319, 2093, 1960, 2141, 2207, 2045, 2126, 2277, 2223, 2249, 2223, 1874, 2128, 2546, 2142, 1926, 2183, 2529, 2198, 1867, 2141, 2235, 2055, 1860, 2157, 2106, 2646, 2237, 1952, 1999, 1985, 2202, 2262, 2067, 2072, 2012, 2053, 2095, 2144, 2134, 2079, 1981, 1981, 1949, 2128, 2221, 2453, 1950, 2136, 2313, 2071, 2129, 2478, 2149, 1979, 2096, 2043, 2246, 1986, 2069, 2142, 2214, 2240, 2221, 2237, 2273, 2354, 2250, 2077, 2057, 2085, 2357, 2102, 1931, 2259, 2176, 2580, 2150, 2064, 2053, 2017, 1978, 2252, 2140, 2304, 2145, 2157, 2087, 2511, 2014, 2243, 2173, 2177, 2170, 2119, 2280, 2489, 2314, 2311, 2575, 2252, 2324, 2471, 2422, 2411, 2572, 2010, 2291, 2399, 2187, 2004, 2245, 2030, 2286, 2204, 2359, 2223, 2053, 2041, 2260, 2053, 2515, 2252, 2010, 1916, 2078, 2060, 2074, 2421, 2306, 2110, 2071, 1930, 1961, 1970, 1942, 2070, 2132, 2330, 2369, 2101, 2197, 2107, 2158, 2044, 1923, 1949, 1938, 1906, 2021, 2155, 2000, 2530, 2548, 2546, 2233, 2101, 2057, 1933, 2012, 2206, 2139, 2291, 2218, 2176, 2030, 2033, 2382, 2314, 2234, 2570, 2296, 2054, 2474, 2325, 2123, 1930, 2162, 2263, 2307, 2056, 2155, 2188, 2340, 2139, 1940, 2112, 2344, 2517, 2152, 2086, 1994, 2259, 2241, 2337, 2103, 2051, 2081, 1978, 2024, 2295, 2133, 2354, 2158, 2059, 2196, 2155, 2517, 2157, 2054, 1953, 1983, 2158, 2326, 2151, 2369, 2297, 2079, 1991, 2143, 2359, 2175, 2073, 1964, 2072, 2114, 2194, 2237, 2430, 2402, 2261, 2193, 2079, 2327, 2053, 2363, 2119, 1967, 2069, 2372, 2117, 2040, 2077, 2008, 2341, 2106, 2484, 2171, 2097, 1996, 2007, 2113, 2277, 2334, 2237, 2414, 2464, 2259, 2221, 2106, 2230, 2438, 2172, 1991, 2073, 2200, 2487, 2194, 2136, 2195, 2202, 2175, 2128, 2279],
