{
  "AcquisitionMatrixPE": 70,
  "AcquisitionNumber": 1,
  "AcquisitionTime": "12:14:4.170000",
  "BandwidthPerPixelPhaseEncode": 51.948,
  "BaseResolution": 70,
  "BodyPartExamined": "HEAD",
  "CoilCombinationMethod": "Sum of Squares",
  "ConsistencyInfo": "N4_VE11C_LATEST_20160120",
  "ConversionSoftware": "dcm2niix",
  "ConversionSoftwareVersion": "v1.0.20220720",
  "DerivedVendorReportedEchoSpacing": 0.000550001,
  "DeviceSerialNumber": "66061",
  "DwellTime": 3.3e-06,
  "EchoTime": 0.022,
  "EchoTrainLength": 35,
  "EffectiveEchoSpacing": 0.000275,
  "FlipAngle": 90,
  "HeudiconvVersion": "1.1.1",
  "ImageOrientationPatientDICOM": [0.999013, 0.0108882, 0.0430669, -0.00122054, 0.975857, -0.218405],
  "ImageOrientationText": "Tra>Cor(-12.6)>Sag(2.5)",
  "ImageType": [
    "ORIGINAL",
    "PRIMARY",
    "M",
    "ND",
    "NORM",
    "MOSAIC"
],
  "ImagingFrequency": 123.255,
  "InPlanePhaseEncodingDirectionDICOM": "COL",
  "InstitutionAddress": "Street StreetNo,City/1c4204/,District,KR,ZIP",
  "InstitutionName": "SKKU",
  "InstitutionalDepartmentName": "Department",
  "MRAcquisitionType": "2D",
  "MagneticFieldStrength": 3,
  "Manufacturer": "Siemens",
  "ManufacturersModelName": "Prisma",
  "MatrixCoilMode": "GRAPPA",
  "Modality": "MR",
  "NonlinearGradientCorrection": false,
  "ParallelReductionFactorInPlane": 2,
  "PartialFourier": 1,
  "PatientPosition": "HFS",
  "PercentPhaseFOV": 100,
  "PercentSampling": 100,
  "PhaseEncodingDirection": "j-",
  "PhaseEncodingSteps": 70,
  "PhaseResolution": 1,
  "PixelBandwidth": 2165,
  "ProcedureStepDescription": "Head^PI:Others",
  "ProtocolName": "BOLD_ep2d_3x3x3_dimension1",
  "PulseSequenceDetails": "%SiemensSeq%\\ep2d_pace",
  "ReceiveCoilActiveElements": "HC1-7",
  "ReceiveCoilName": "HeadNeck_64",
  "ReconMatrixPE": 70,
  "RefLinesPE": 24,
  "RepetitionTime": 2,
  "SAR": 0.118343,
  "ScanOptions": "FS",
  "ScanningSequence": "EP",
  "SequenceName": "*epfid2d1_70",
  "SequenceVariant": "SK",
  "SeriesDescription": "BOLD_ep2d_3x3x3_dimension1",
  "SeriesNumber": 6,
  "ShimSetting": [5047, 3729, 4455, 347, -66, -10, -24, 46],
  "SliceThickness": 3,
  "SliceTiming": [0.99, 0, 1.0375, 0.0475, 1.085, 0.095, 1.1325, 0.1425, 1.18, 0.19, 1.2275, 0.2375, 1.275, 0.285, 1.32, 0.33, 1.3675, 0.3775, 1.415, 0.425, 1.4625, 0.4725, 1.51, 0.52, 1.5575, 0.5675, 1.605, 0.615, 1.65, 0.66, 1.6975, 0.7075, 1.745, 0.755, 1.7925, 0.8025, 1.84, 0.85, 1.8875, 0.8975, 1.935, 0.945],
  "SoftwareVersions": "syngo MR E11",
  "SpacingBetweenSlices": 3,
  "StationName": "AWP66061",
  "TaskName": "dimension",
  "TotalReadoutTime": 0.018975,
  "TxRefAmp": 239.322,
  "dcmmeta_affine": [
    [-2.9970386028289795, -0.003661606926470995, 0.13321548700332642, 102.74732208251953],
    [-0.03266466408967972, 2.927572250366211, -0.654410719871521, -87.98460388183594],
    [0.12920059263706207, 0.6552152037620544, 2.92472243309021, -70.40921783447266],
    [0.0, 0.0, 0.0, 1.0]
],
  "dcmmeta_reorient_transform": [
    [0.0, -1.0, 0.0, 69.0],
    [1.0, 0.0, 0.0, 0.0],
    [0.0, 0.0, -1.0, 41.0],
    [0.0, 0.0, 0.0, 1.0]
],
  "dcmmeta_shape": [70, 70, 42, 437],
  "dcmmeta_slice_dim": 2,
  "dcmmeta_version": 0.6,
  "global": {
    "const": {
      "AcquisitionMatrix": [70, 0, 0, 70],
      "AngioFlag": "N",
      "BitsAllocated": 16,
      "BitsStored": 12,
      "BodyPartExamined": "HEAD",
      "Columns": 490,
      "EchoNumbers": 1,
      "EchoTime": 22.0,
      "EchoTrainLength": 35,
      "FlipAngle": 90.0,
      "HighBit": 11,
      "ImageOrientationPatient": [0.99901285879527, 0.01088822138832, 0.04306686193228, -0.001220535668, 0.97585743621826, -0.218405069699],
      "ImagePositionPatient": [-736.5656705059, -708.83681276588, 205.1773165342],
      "ImageType": [
        "ORIGINAL",
        "PRIMARY",
        "M",
        "ND",
        "NORM",
        "MOSAIC"
],
      "ImagedNucleus": "1H",
      "ImagingFrequency": 123.254623,
      "InPlanePhaseEncodingDirection": "COL",
      "MRAcquisitionType": "2D",
      "MagneticFieldStrength": 3.0,
      "Manufacturer": "SIEMENS",
      "ManufacturerModelName": "Prisma",
      "Modality": "MR",
      "NumberOfAverages": 1.0,
      "NumberOfPhaseEncodingSteps": 70,
      "PercentPhaseFieldOfView": 100.0,
      "PercentSampling": 100.0,
      "PerformedProcedureStepStartTime": "114228.565000",
      "PhotometricInterpretation": "MONOCHROME2",
      "PixelBandwidth": 2165.0,
      "PixelRepresentation": 0,
      "PixelSpacing": [3.0, 3.0],
      "ProtocolName": "BOLD_ep2d_3x3x3_dimension1",
      "RepetitionTime": 2000.0,
      "Rows": 490,
      "SAR": 0.11834281149959,
      "SamplesPerPixel": 1,
      "ScanOptions": "FS",
      "ScanningSequence": "EP",
      "SequenceName": "*epfid2d1_70",
      "SequenceVariant": "SK",
      "SeriesDescription": "BOLD_ep2d_3x3x3_dimension1",
      "SeriesNumber": 6,
      "SeriesTime": "121459.956000",
      "SliceLocation": 78.112733312557,
      "SliceThickness": 3.0,
      "SmallestImagePixelValue": 0,
      "SoftwareVersions": "syngo MR E11",
      "SpacingBetweenSlices": 3.0000001009566,
      "SpecificCharacterSet": "ISO_IR 100",
      "StudyID": "1",
      "StudyTime": "114228.511000",
      "TransmitCoilName": "Body",
      "VariableFlipAngleFlag": "N",
      "WindowCenterWidthExplanation": "Algo1",
      "dBdt": 0.0},
    "slices": {}
  },
  "time": {
    "samples": {
      "AcquisitionNumber": [1, 2, 3, 4, 5, 6, 7, 8, 9, 10, 11, 12, 13, 14, 15, 16, 17, 18, 19, 20, 21, 22, 23, 24, 25, 26, 27, 28, 29, 30, 31, 32, 33, 34, 35, 36, 37, 38, 39, 40, 41, 42, 43, 44, 45, 46, 47, 48, 49, 50, 51, 52, 53, 54, 55, 56, 57, 58, 59, 60, 61, 62, 63, 64, 65, 66, 67, 68, 69, 70, 71, 72, 73, 74, 75, 76, 77, 78, 79, 80, 81, 82, 83, 84, 85, 86, 87, 88, 89, 90, 91, 92, 93, 94, 95, 96, 97, 98, 99, 100, 101, 102, 103, 104, 105, 106, 107, 108, 109, 110, 111, 112, 113, 114, 115, 116, 117, 118, 119, 120, 121, 122, 123, 124, 125, 126, 127, 128, 129, 130, 131, 132, 133, 134, 135, 136, 137, 138, 139, 140, 141, 142, 143, 144, 145, 146, 147, 148, 149, 150, 151, 152, 153, 154, 155, 156, 157, 158, 159, 160, 161, 162, 163, 164, 165, 166, 167, 168, 169, 170, 171, 172, 173, 174, 175, 176, 177, 178, 179, 180, 181, 182, 183, 184, 185, 186, 187, 188, 189, 190, 191, 192, 193, 194, 195, 196, 197, 198, 199, 200, 201, 202, 203, 204, 205, 206, 207, 208, 209, 210, 211, 212, 213, 214, 215, 216, 217, 218, 219, 220, 221, 222, 223, 224, 225, 226, 227, 228, 229, 230, 231, 232, 233, 234, 235, 236, 237, 238, 239, 240, 241, 242, 243, 244, 245, 246, 247, 248, 249, 250, 251, 252, 253, 254, 255, 256, 257, 258, 259, 260, 261, 262, 263, 264, 265, 266, 267, 268, 269, 270, 271, 272, 273, 274, 275, 276, 277, 278, 279, 280, 281, 282, 283, 284, 285, 286, 287, 288, 289, 290, 291, 292, 293, 294, 295, 296, 297, 298, 299, 300, 301, 302, 303, 304, 305, 306, 307, 308, 309, 310, 311, 312, 313, 314, 315, 316, 317, 318, 319, 320, 321, 322, 323, 324, 325, 326, 327, 328, 329, 330, 331, 332, 333, 334, 335, 336, 337, 338, 339, 340, 341, 342, 343, 344, 345, 346, 347, 348, 349, 350, 351, 352, 353, 354, 355, 356, 357, 358, 359, 360, 361, 362, 363, 364, 365, 366, 367, 368, 369, 370, 371, 372, 373, 374, 375, 376, 377, 378, 379, 380, 381, 382, 383, 384, 385, 386, 387, 388, 389, 390, 391, 392, 393, 394, 395, 396, 397, 398, 399, 400, 401, 402, 403, 404, 405, 406, 407, 408, 409, 410, 411, 412, 413, 414, 415, 416, 417, 418, 419, 420, 421, 422, 423, 424, 425, 426, 427, 428, 429, 430, 431, 432, 433, 434, 435, 436, 437],
      "AcquisitionTime": ["121404.170000", "121406.170000", "121408.170000", "121410.170000", "121412.170000", "121414.170000", "121416.170000", "121418.170000", "121420.170000", "121422.170000", "121424.170000", "121426.170000", "121428.170000", "121430.170000", "121432.170000", "121434.170000", "121436.170000", "121438.170000", "121440.170000", "121442.170000", "121444.170000", "121446.170000", "121448.170000", "121450.170000", "121452.170000", "121454.170000", "121456.170000", "121458.170000", "121500.170000", "121502.170000", "121504.170000", "121506.170000", "121508.170000", "121510.170000", "121512.170000", "121514.170000", "121516.170000", "121518.170000", "121520.170000", "121522.170000", "121524.170000", "121526.170000", "121528.170000", "121530.170000", "121532.170000", "121534.170000", "121536.170000", "121538.170000", "121540.170000", "121542.170000", "121544.170000", "121546.170000", "121548.170000", "121550.170000", "121552.170000", "121554.170000", "121556.170000", "121558.170000", "121600.170000", "121602.170000", "121604.170000", "121606.170000", "121608.170000", "121610.170000", "121612.170000", "121614.170000", "121616.170000", "121618.170000", "121620.170000", "121622.170000", "121624.170000", "121626.170000", "121628.170000", "121630.170000", "121632.170000", "121634.170000", "121636.170000", "121638.170000", "121640.170000", "121642.170000", "121644.170000", "121646.170000", "121648.170000", "121650.170000", "121652.170000", "121654.170000", "121656.170000", "121658.170000", "121700.170000", "121702.170000", "121704.170000", "121706.170000", "121708.170000", "121710.170000", "121712.170000", "121714.170000", "121716.170000", "121718.170000", "121720.170000", "121722.170000", "121724.170000", "121726.170000", "121728.170000", "121730.170000", "121732.170000", "121734.170000", "121736.170000", "121738.170000", "121740.170000", "121742.170000", "121744.170000", "121746.170000", "121748.170000", "121750.170000", "121752.170000", "121754.170000", "121756.170000", "121758.170000", "121800.170000", "121802.170000", "121804.170000", "121806.170000", "121808.170000", "121810.170000", "121812.170000", "121814.170000", "121816.170000", "121818.170000", "121820.170000", "121822.170000", "121824.170000", "121826.170000", "121828.170000", "121830.170000", "121832.170000", "121834.170000", "121836.170000", "121838.170000", "121840.170000", "121842.170000", "121844.170000", "121846.170000", "121848.170000", "121850.170000", "121852.170000", "121854.170000", "121856.170000", "121858.170000", "121900.170000", "121902.170000", "121904.170000", "121906.170000", "121908.170000", "121910.170000", "121912.170000", "121914.170000", "121916.170000", "121918.170000", "121920.170000", "121922.170000", "121924.170000", "121926.170000", "121928.170000", "121930.170000", "121932.170000", "121934.170000", "121936.170000", "121938.170000", "121940.170000", "121942.170000", "121944.170000", "121946.170000", "121948.170000", "121950.170000", "121952.170000", "121954.170000", "121956.170000", "121958.170000", "122000.170000", "122002.170000", "122004.170000", "122006.170000", "122008.170000", "122010.170000", "122012.170000", "122014.170000", "122016.170000", "122018.170000", "122020.170000", "122022.170000", "122024.170000", "122026.170000", "122028.170000", "122030.170000", "122032.170000", "122034.170000", "122036.170000", "122038.170000", "122040.170000", "122042.170000", "122044.170000", "122046.170000", "122048.170000", "122050.170000", "122052.170000", "122054.170000", "122056.170000", "122058.170000", "122100.170000", "122102.170000", "122104.170000", "122106.170000", "122108.170000", "122110.170000", "122112.170000", "122114.170000", "122116.170000", "122118.170000", "122120.170000", "122122.170000", "122124.170000", "122126.170000", "122128.170000", "122130.170000", "122132.170000", "122134.170000", "122136.170000", "122138.170000", "122140.170000", "122142.170000", "122144.170000", "122146.170000", "122148.170000", "122150.170000", "122152.170000", "122154.170000", "122156.170000", "122158.170000", "122200.170000", "122202.170000", "122204.170000", "122206.170000", "122208.170000", "122210.170000", "122212.170000", "122214.170000", "122216.170000", "122218.170000", "122220.170000", "122222.170000", "122224.170000", "122226.170000", "122228.170000", "122230.170000", "122232.170000", "122234.170000", "122236.170000", "122238.170000", "122240.170000", "122242.170000", "122244.170000", "122246.170000", "122248.170000", "122250.170000", "122252.170000", "122254.170000", "122256.170000", "122258.170000", "122300.170000", "122302.170000", "122304.170000", "122306.170000", "122308.170000", "122310.170000", "122312.170000", "122314.170000", "122316.170000", "122318.170000", "122320.170000", "122322.170000", "122324.170000", "122326.170000", "122328.170000", "122330.170000", "122332.170000", "122334.170000", "122336.170000", "122338.170000", "122340.170000", "122342.170000", "122344.170000", "122346.170000", "122348.170000", "122350.170000", "122352.170000", "122354.170000", "122356.170000", "122358.170000", "122400.170000", "122402.170000", "122404.170000", "122406.170000", "122408.170000", "122410.170000", "122412.170000", "122414.170000", "122416.170000", "122418.170000", "122420.170000", "122422.170000", "122424.170000", "122426.170000", "122428.170000", "122430.170000", "122432.170000", "122434.170000", "122436.170000", "122438.170000", "122440.170000", "122442.170000", "122444.170000", "122446.170000", "122448.170000", "122450.170000", "122452.170000", "122454.170000", "122456.170000", "122458.170000", "122500.170000", "122502.170000", "122504.170000", "122506.170000", "122508.170000", "122510.170000", "122512.170000", "122514.170000", "122516.170000", "122518.170000", "122520.170000", "122522.170000", "122524.170000", "122526.170000", "122528.170000", "122530.170000", "122532.170000", "122534.170000", "122536.170000", "122538.170000", "122540.170000", "122542.170000", "122544.170000", "122546.170000", "122548.170000", "122550.170000", "122552.170000", "122554.170000", "122556.170000", "122558.170000", "122600.170000", "122602.170000", "122604.170000", "122606.170000", "122608.170000", "122610.170000", "122612.170000", "122614.170000", "122616.170000", "122618.170000", "122620.170000", "122622.170000", "122624.170000", "122626.170000", "122628.170000", "122630.170000", "122632.170000", "122634.170000", "122636.170000", "122638.170000", "122640.170000", "122642.170000", "122644.170000", "122646.170000", "122648.170000", "122650.170000", "122652.170000", "122654.170000", "122656.170000", "122658.170000", "122700.170000", "122702.170000", "122704.170000", "122706.170000", "122708.170000", "122710.170000", "122712.170000", "122714.170000", "122716.170000", "122718.170000", "122720.170000", "122722.170000", "122724.170000", "122726.170000", "122728.170000", "122730.170000", "122732.170000", "122734.170000", "122736.170000", "122738.170000", "122740.170000", "122742.170000", "122744.170000", "122746.170000", "122748.170000", "122750.170000", "122752.170000", "122754.170000", "122756.170000", "122758.170000", "122800.170000", "122802.170000", "122804.170000", "122806.170000", "122808.170000", "122810.170000", "122812.170000", "122814.170000", "122816.170000", "122818.170000", "122820.170000", "122822.170000", "122824.170000", "122826.170000", "122828.170000", "122830.170000", "122832.170000", "122834.170000", "122836.170000"],
      "ContentTime": ["121459.959000", "121459.963000", "121459.965000", "121459.968000", "121459.970000", "121459.973000", "121459.984000", "121459.987000", "121459.989000", "121459.992000", "121459.995000", "121459.997000", "121500.001000", "121500.003000", "121500.014000", "121500.016000", "121500.019000", "121500.022000", "121500.024000", "121500.027000", "121500.030000", "121500.032000", "121500.035000", "121500.041000", "121500.044000", "121500.046000", "121500.049000", "121500.052000", "121539.954000", "121539.957000", "121539.960000", "121539.963000", "121539.965000", "121539.968000", "121539.971000", "121539.973000", "121539.976000", "121539.979000", "121539.981000", "121539.984000", "121539.987000", "121539.989000", "121539.992000", "121539.995000", "121539.997000", "121540.007000", "121540.009000", "121540.012000", "121619.954000", "121619.957000", "121619.960000", "121619.963000", "121619.965000", "121619.968000", "121619.976000", "121619.979000", "121619.982000", "121619.984000", "121619.987000", "121619.989000", "121619.992000", "121619.995000", "121619.997000", "121620.001000", "121620.004000", "121620.006000", "121620.009000", "121620.012000", "121659.953000", "121659.956000", "121659.959000", "121659.962000", "121659.964000", "121659.967000", "121659.970000", "121659.972000", "121659.975000", "121659.978000", "121659.980000", "121659.983000", "121659.985000", "121659.988000", "121659.991000", "121659.993000", "121659.996000", "121700.000000", "121700.002000", "121700.005000", "121739.954000", "121739.957000", "121739.960000", "121739.963000", "121739.965000", "121739.968000", "121739.971000", "121739.973000", "121739.976000", "121739.979000", "121739.981000", "121739.984000", "121739.987000", "121739.989000", "121739.992000", "121739.995000", "121739.997000", "121740.001000", "121740.004000", "121740.006000", "121819.954000", "121819.957000", "121819.960000", "121819.963000", "121819.965000", "121819.968000", "121819.970000", "121819.973000", "121819.976000", "121819.978000", "121819.981000", "121819.984000", "121819.986000", "121819.989000", "121819.991000", "121819.994000", "121819.997000", "121820.001000", "121820.003000", "121820.006000", "121859.955000", "121859.957000", "121859.960000", "121859.963000", "121859.966000", "121859.968000", "121859.971000", "121859.974000", "121859.976000", "121859.979000", "121859.982000", "121859.984000", "121859.987000", "121859.989000", "121859.992000", "121859.995000", "121859.997000", "121900.001000", "121900.004000", "121900.006000", "121939.954000", "121939.957000", "121939.960000", "121939.963000", "121939.965000", "121939.968000", "121939.971000", "121939.973000", "121939.976000", "121939.979000", "121939.981000", "121939.984000", "121939.987000", "121939.989000", "121939.992000", "121939.994000", "121939.997000", "121940.001000", "121940.003000", "121940.006000", "122019.955000", "122019.957000", "122019.960000", "122019.963000", "122019.965000", "122019.968000", "122019.971000", "122019.973000", "122019.976000", "122019.979000", "122019.981000", "122019.984000", "122019.995000", "122019.997000", "122020.001000", "122020.004000", "122020.006000", "122020.009000", "122020.011000", "122020.014000", "122059.955000", "122059.957000", "122059.960000", "122059.963000", "122059.965000", "122059.968000", "122059.971000", "122059.973000", "122059.976000", "122059.979000", "122059.981000", "122059.984000", "122059.987000", "122059.989000", "122059.992000", "122059.994000", "122059.997000", "122100.001000", "122100.004000", "122100.006000", "122139.953000", "122139.956000", "122139.959000", "122139.962000", "122139.964000", "122139.967000", "122139.970000", "122139.972000", "122139.982000", "122139.984000", "122139.987000", "122139.989000", "122139.992000", "122139.995000", "122139.997000", "122140.001000", "122140.004000", "122140.006000", "122140.009000", "122140.012000", "122219.955000", "122219.957000", "122219.960000", "122219.963000", "122219.966000", "122219.968000", "122219.971000", "122219.974000", "122219.979000", "122219.981000", "122219.984000", "122219.987000", "122219.989000", "122219.992000", "122219.995000", "122219.997000", "122220.001000", "122220.003000", "122220.006000", "122220.009000", "122259.955000", "122259.958000", "122259.968000", "122259.971000", "122259.974000", "122259.976000", "122259.979000", "122259.982000", "122259.985000", "122259.987000", "122259.990000", "122259.993000", "122259.995000", "122259.998000", "122300.002000", "122300.004000", "122300.007000", "122300.009000", "122300.012000", "122300.015000", "122339.954000", "122339.957000", "122339.960000", "122339.963000", "122339.966000", "122339.968000", "122339.971000", "122339.974000", "122339.976000", "122339.979000", "122339.982000", "122339.984000", "122339.987000", "122339.990000", "122339.992000", "122339.995000", "122339.998000", "122340.001000", "122340.004000", "122340.007000", "122419.955000", "122419.958000", "122419.960000", "122419.963000", "122419.966000", "122419.968000", "122419.971000", "122419.974000", "122419.976000", "122419.979000", "122419.982000", "122419.984000", "122419.987000", "122419.990000", "122419.992000", "122419.995000", "122419.998000", "122420.001000", "122420.004000", "122420.007000", "122459.955000", "122459.957000", "122459.963000", "122459.966000", "122459.969000", "122459.971000", "122459.974000", "122459.977000", "122459.979000", "122459.982000", "122459.985000", "122459.987000", "122459.990000", "122459.993000", "122459.995000", "122459.998000", "122500.002000", "122500.004000", "122500.007000", "122500.010000", "122539.955000", "122539.957000", "122539.960000", "122539.963000", "122539.965000", "122539.968000", "122539.971000", "122539.974000", "122539.977000", "122539.979000", "122539.982000", "122539.984000", "122539.987000", "122539.990000", "122539.993000", "122539.995000", "122539.998000", "122540.002000", "122540.004000", "122540.007000", "122619.955000", "122619.958000", "122619.960000", "122619.963000", "122619.966000", "122619.968000", "122619.971000", "122619.974000", "122619.984000", "122619.987000", "122619.989000", "122619.992000", "122619.995000", "122619.997000", "122620.000000", "122620.003000", "122620.005000", "122620.008000", "122620.011000", "122620.013000", "122659.955000", "122659.958000", "122659.960000", "122659.963000", "122659.965000", "122659.968000", "122659.971000", "122659.974000", "122659.976000", "122659.979000", "122659.982000", "122659.984000", "122659.987000", "122659.990000", "122659.992000", "122659.995000", "122659.997000", "122700.001000", "122700.004000", "122700.007000", "122739.955000", "122739.957000", "122739.960000", "122739.965000", "122739.968000", "122739.971000", "122739.973000", "122739.976000", "122739.979000", "122739.981000", "122739.984000", "122739.987000", "122739.989000", "122739.992000", "122739.995000", "122739.997000", "122740.001000", "122740.004000", "122740.006000", "122740.009000", "122819.955000", "122819.958000", "122819.960000", "122819.963000", "122819.965000", "122819.968000", "122819.971000", "122819.973000", "122819.976000", "122819.979000", "122819.981000", "122819.984000", "122819.987000", "122819.990000", "122819.992000", "122819.995000", "122819.997000", "122820.001000", "122820.004000", "122820.007000", "122837.682000", "122837.685000", "122837.688000", "122837.691000", "122837.693000", "122837.696000", "122837.699000", "122837.702000", "122837.704000"],
      "InstanceCreationTime": ["121459.959000", "121459.963000", "121459.965000", "121459.968000", "121459.970000", "121459.973000", "121459.984000", "121459.987000", "121459.989000", "121459.992000", "121459.995000", "121459.997000", "121500.001000", "121500.003000", "121500.014000", "121500.016000", "121500.019000", "121500.022000", "121500.024000", "121500.027000", "121500.030000", "121500.032000", "121500.035000", "121500.041000", "121500.044000", "121500.046000", "121500.049000", "121500.052000", "121539.954000", "121539.957000", "121539.960000", "121539.963000", "121539.965000", "121539.968000", "121539.971000", "121539.973000", "121539.976000", "121539.979000", "121539.981000", "121539.984000", "121539.987000", "121539.989000", "121539.992000", "121539.995000", "121539.997000", "121540.007000", "121540.009000", "121540.012000", "121619.954000", "121619.957000", "121619.960000", "121619.963000", "121619.965000", "121619.968000", "121619.976000", "121619.979000", "121619.982000", "121619.984000", "121619.987000", "121619.989000", "121619.992000", "121619.995000", "121619.997000", "121620.001000", "121620.004000", "121620.006000", "121620.009000", "121620.012000", "121659.953000", "121659.956000", "121659.959000", "121659.962000", "121659.964000", "121659.967000", "121659.970000", "121659.972000", "121659.975000", "121659.978000", "121659.980000", "121659.983000", "121659.985000", "121659.988000", "121659.991000", "121659.993000", "121659.996000", "121700.000000", "121700.002000", "121700.005000", "121739.954000", "121739.957000", "121739.960000", "121739.963000", "121739.965000", "121739.968000", "121739.971000", "121739.973000", "121739.976000", "121739.979000", "121739.981000", "121739.984000", "121739.987000", "121739.989000", "121739.992000", "121739.995000", "121739.997000", "121740.001000", "121740.004000", "121740.006000", "121819.954000", "121819.957000", "121819.960000", "121819.963000", "121819.965000", "121819.968000", "121819.970000", "121819.973000", "121819.976000", "121819.978000", "121819.981000", "121819.984000", "121819.986000", "121819.989000", "121819.991000", "121819.994000", "121819.997000", "121820.001000", "121820.003000", "121820.006000", "121859.955000", "121859.957000", "121859.960000", "121859.963000", "121859.966000", "121859.968000", "121859.971000", "121859.974000", "121859.976000", "121859.979000", "121859.982000", "121859.984000", "121859.987000", "121859.989000", "121859.992000", "121859.995000", "121859.997000", "121900.001000", "121900.004000", "121900.006000", "121939.954000", "121939.957000", "121939.960000", "121939.963000", "121939.965000", "121939.968000", "121939.971000", "121939.973000", "121939.976000", "121939.979000", "121939.981000", "121939.984000", "121939.987000", "121939.989000", "121939.992000", "121939.994000", "121939.997000", "121940.001000", "121940.003000", "121940.006000", "122019.955000", "122019.957000", "122019.960000", "122019.963000", "122019.965000", "122019.968000", "122019.971000", "122019.973000", "122019.976000", "122019.979000", "122019.981000", "122019.984000", "122019.995000", "122019.997000", "122020.001000", "122020.004000", "122020.006000", "122020.009000", "122020.011000", "122020.014000", "122059.955000", "122059.957000", "122059.960000", "122059.963000", "122059.965000", "122059.968000", "122059.971000", "122059.973000", "122059.976000", "122059.979000", "122059.981000", "122059.984000", "122059.987000", "122059.989000", "122059.992000", "122059.994000", "122059.997000", "122100.001000", "122100.004000", "122100.006000", "122139.953000", "122139.956000", "122139.959000", "122139.962000", "122139.964000", "122139.967000", "122139.970000", "122139.972000", "122139.982000", "122139.984000", "122139.987000", "122139.989000", "122139.992000", "122139.995000", "122139.997000", "122140.001000", "122140.004000", "122140.006000", "122140.009000", "122140.012000", "122219.955000", "122219.957000", "122219.960000", "122219.963000", "122219.966000", "122219.968000", "122219.971000", "122219.974000", "122219.979000", "122219.981000", "122219.984000", "122219.987000", "122219.989000", "122219.992000", "122219.995000", "122219.997000", "122220.001000", "122220.003000", "122220.006000", "122220.009000", "122259.955000", "122259.958000", "122259.968000", "122259.971000", "122259.974000", "122259.976000", "122259.979000", "122259.982000", "122259.985000", "122259.987000", "122259.990000", "122259.993000", "122259.995000", "122259.998000", "122300.002000", "122300.004000", "122300.007000", "122300.009000", "122300.012000", "122300.015000", "122339.954000", "122339.957000", "122339.960000", "122339.963000", "122339.966000", "122339.968000", "122339.971000", "122339.974000", "122339.976000", "122339.979000", "122339.982000", "122339.984000", "122339.987000", "122339.990000", "122339.992000", "122339.995000", "122339.998000", "122340.001000", "122340.004000", "122340.007000", "122419.955000", "122419.958000", "122419.960000", "122419.963000", "122419.966000", "122419.968000", "122419.971000", "122419.974000", "122419.976000", "122419.979000", "122419.982000", "122419.984000", "122419.987000", "122419.990000", "122419.992000", "122419.995000", "122419.998000", "122420.001000", "122420.004000", "122420.007000", "122459.955000", "122459.957000", "122459.963000", "122459.966000", "122459.969000", "122459.971000", "122459.974000", "122459.977000", "122459.979000", "122459.982000", "122459.985000", "122459.987000", "122459.990000", "122459.993000", "122459.995000", "122459.998000", "122500.002000", "122500.004000", "122500.007000", "122500.010000", "122539.955000", "122539.957000", "122539.960000", "122539.963000", "122539.965000", "122539.968000", "122539.971000", "122539.974000", "122539.977000", "122539.979000", "122539.982000", "122539.984000", "122539.987000", "122539.990000", "122539.993000", "122539.995000", "122539.998000", "122540.002000", "122540.004000", "122540.007000", "122619.955000", "122619.958000", "122619.960000", "122619.963000", "122619.966000", "122619.968000", "122619.971000", "122619.974000", "122619.984000", "122619.987000", "122619.989000", "122619.992000", "122619.995000", "122619.997000", "122620.000000", "122620.003000", "122620.005000", "122620.008000", "122620.011000", "122620.013000", "122659.955000", "122659.958000", "122659.960000", "122659.963000", "122659.965000", "122659.968000", "122659.971000", "122659.974000", "122659.976000", "122659.979000", "122659.982000", "122659.984000", "122659.987000", "122659.990000", "122659.992000", "122659.995000", "122659.997000", "122700.001000", "122700.004000", "122700.007000", "122739.955000", "122739.957000", "122739.960000", "122739.965000", "122739.968000", "122739.971000", "122739.973000", "122739.976000", "122739.979000", "122739.981000", "122739.984000", "122739.987000", "122739.989000", "122739.992000", "122739.995000", "122739.997000", "122740.001000", "122740.004000", "122740.006000", "122740.009000", "122819.955000", "122819.958000", "122819.960000", "122819.963000", "122819.965000", "122819.968000", "122819.971000", "122819.973000", "122819.976000", "122819.979000", "122819.981000", "122819.984000", "122819.987000", "122819.990000", "122819.992000", "122819.995000", "122819.997000", "122820.001000", "122820.004000", "122820.007000", "122837.682000", "122837.685000", "122837.688000", "122837.691000", "122837.693000", "122837.696000", "122837.699000", "122837.702000", "122837.704000"],
