{
  "AcquisitionMatrixPE": 70,
  "AcquisitionNumber": 1,
  "AcquisitionTime": "12:25:4.162500",
  "BandwidthPerPixelPhaseEncode": 51.948,
  "BaseResolution": 70,
  "BodyPartExamined": "HEAD",
  "CoilCombinationMethod": "Sum of Squares",
  "ConsistencyInfo": "N4_VE11C_LATEST_20160120",
  "ConversionSoftware": "dcm2niix",
  "ConversionSoftwareVersion": "v1.0.20220720",
  "DerivedVendorReportedEchoSpacing": 0.000550001,
  "DeviceSerialNumber": "66061",
  "DwellTime": 3.3e-06,
  "EchoTime": 0.022,
  "EchoTrainLength": 35,
  "EffectiveEchoSpacing": 0.000275,
  "FlipAngle": 90,
  "HeudiconvVersion": "1.1.1",
  "ImageOrientationPatientDICOM": [0.998927, 0.011145, 0.0449578, -0.00122035, 0.976616, -0.214987],
  "ImageOrientationText": "Tra>Cor(-12.4)>Sag(2.7)",
  "ImageType": [
    "ORIGINAL",
    "PRIMARY",
    "M",
    "ND",
    "NORM",
    "MOSAIC"
],
  "ImagingFrequency": 123.254,
  "InPlanePhaseEncodingDirectionDICOM": "COL",
  "InstitutionAddress": "Street StreetNo,City/1c4204/,District,KR,ZIP",
  "InstitutionName": "SKKU",
  "InstitutionalDepartmentName": "Department",
  "MRAcquisitionType": "2D",
  "MagneticFieldStrength": 3,
  "Manufacturer": "Siemens",
  "ManufacturersModelName": "Prisma",
  "MatrixCoilMode": "GRAPPA",
  "Modality": "MR",
  "NonlinearGradientCorrection": false,
  "ParallelReductionFactorInPlane": 2,
  "PartialFourier": 1,
  "PatientPosition": "HFS",
  "PercentPhaseFOV": 100,
  "PercentSampling": 100,
  "PhaseEncodingDirection": "j-",
  "PhaseEncodingSteps": 70,
  "PhaseResolution": 1,
  "PixelBandwidth": 2165,
  "ProcedureStepDescription": "Head^PI:Others",
  "ProtocolName": "BOLD_ep2d_3x3x3_feature4",
  "PulseSequenceDetails": "%SiemensSeq%\\ep2d_pace",
  "ReceiveCoilActiveElements": "HC1-7",
  "ReceiveCoilName": "HeadNeck_64",
  "ReconMatrixPE": 70,
  "RefLinesPE": 24,
  "RepetitionTime": 2,
  "SAR": 0.136822,
  "ScanOptions": "FS",
  "ScanningSequence": "EP",
  "SequenceName": "*epfid2d1_70",
  "SequenceVariant": "SK",
  "SeriesDescription": "BOLD_ep2d_3x3x3_feature4",
  "SeriesNumber": 11,
  "ShimSetting": [5042, 3718, 4479, 380, -136, 38, -29, 41],
  "SliceThickness": 3,
  "SliceTiming": [0.99, 0, 1.0375, 0.0475, 1.0825, 0.0925, 1.13, 0.14, 1.1775, 0.1875, 1.225, 0.235, 1.2725, 0.2825, 1.32, 0.33, 1.3675, 0.3775, 1.4125, 0.4225, 1.46, 0.47, 1.5075, 0.5175, 1.555, 0.565, 1.6025, 0.6125, 1.65, 0.66, 1.6975, 0.7075, 1.7425, 0.7525, 1.79, 0.8, 1.8375, 0.8475, 1.885, 0.895, 1.9325, 0.9425],
  "SoftwareVersions": "syngo MR E11",
  "SpacingBetweenSlices": 3,
  "StationName": "AWP66061",
  "TaskName": "feature",
  "TotalReadoutTime": 0.018975,
  "TxRefAmp": 251.894,
  "dcmmeta_affine": [
    [-2.9967801570892334, -0.0036610469687730074, 0.13890774548053741, 102.6637954711914],
    [-0.03343496099114418, 2.9298486709594727, -0.6441031694412231, -92.4637680053711],
    [0.13487352430820465, 0.6449599862098694, 2.9267449378967285, -62.481388092041016],
    [0.0, 0.0, 0.0, 1.0]
],
  "dcmmeta_reorient_transform": [
    [0.0, -1.0, 0.0, 69.0],
    [1.0, 0.0, 0.0, 0.0],
    [0.0, 0.0, -1.0, 41.0],
    [0.0, 0.0, 0.0, 1.0]
],
  "dcmmeta_shape": [70, 70, 42, 221],
  "dcmmeta_slice_dim": 2,
  "dcmmeta_version": 0.6,
  "global": {
    "const": {
      "AcquisitionMatrix": [70, 0, 0, 70],
      "AngioFlag": "N",
      "BitsAllocated": 16,
      "BitsStored": 12,
      "BodyPartExamined": "HEAD",
      "Columns": 490,
      "EchoNumbers": 1,
      "EchoTime": 22.0,
      "EchoTrainLength": 35,
      "FlipAngle": 90.0,
      "HighBit": 11,
      "ImageOrientationPatient": [0.99892671481705, 0.01114498757628, 0.04495784332841, -0.0012203490178, 0.97661622353073, -0.2149866569926],
      "ImagePositionPatient": [-736.66140977371, -705.57712390694, 209.13554571895],
      "ImageType": [
        "ORIGINAL",
        "PRIMARY",
        "M",
        "ND",
        "NORM",
        "MOSAIC"
],
      "ImagedNucleus": "1H",
      "ImagingFrequency": 123.254429,
      "InPlanePhaseEncodingDirection": "COL",
      "MRAcquisitionType": "2D",
      "MagneticFieldStrength": 3.0,
      "Manufacturer": "SIEMENS",
      "ManufacturerModelName": "Prisma",
      "Modality": "MR",
      "NumberOfAverages": 1.0,
      "NumberOfPhaseEncodingSteps": 70,
      "PercentPhaseFieldOfView": 100.0,
      "PercentSampling": 100.0,
      "PerformedProcedureStepStartTime": "112155.301000",
      "PhotometricInterpretation": "MONOCHROME2",
      "PixelBandwidth": 2165.0,
      "PixelRepresentation": 0,
      "PixelSpacing": [3.0, 3.0],
      "ProtocolName": "BOLD_ep2d_3x3x3_feature4",
      "RepetitionTime": 2000.0,
      "Rows": 490,
      "SAR": 0.13682201022892,
      "SamplesPerPixel": 1,
      "ScanOptions": "FS",
      "ScanningSequence": "EP",
      "SequenceName": "*epfid2d1_70",
      "SequenceVariant": "SK",
      "SeriesDescription": "BOLD_ep2d_3x3x3_feature4",
      "SeriesNumber": 11,
      "SeriesTime": "122546.119000",
      "SliceLocation": 86.649973994669,
      "SliceThickness": 3.0,
      "SmallestImagePixelValue": 0,
      "SoftwareVersions": "syngo MR E11",
      "SpacingBetweenSlices": 3.0000000663734,
      "SpecificCharacterSet": "ISO_IR 100",
      "StudyID": "1",
      "StudyTime": "112155.245000",
      "TransmitCoilName": "Body",
      "VariableFlipAngleFlag": "N",
      "WindowCenterWidthExplanation": "Algo1",
      "dBdt": 0.0},
    "slices": {}
  },
  "time": {
    "samples": {
      "AcquisitionNumber": [1, 2, 3, 4, 5, 6, 7, 8, 9, 10, 11, 12, 13, 14, 15, 16, 17, 18, 19, 20, 21, 22, 23, 24, 25, 26, 27, 28, 29, 30, 31, 32, 33, 34, 35, 36, 37, 38, 39, 40, 41, 42, 43, 44, 45, 46, 47, 48, 49, 50, 51, 52, 53, 54, 55, 56, 57, 58, 59, 60, 61, 62, 63, 64, 65, 66, 67, 68, 69, 70, 71, 72, 73, 74, 75, 76, 77, 78, 79, 80, 81, 82, 83, 84, 85, 86, 87, 88, 89, 90, 91, 92, 93, 94, 95, 96, 97, 98, 99, 100, 101, 102, 103, 104, 105, 106, 107, 108, 109, 110, 111, 112, 113, 114, 115, 116, 117, 118, 119, 120, 121, 122, 123, 124, 125, 126, 127, 128, 129, 130, 131, 132, 133, 134, 135, 136, 137, 138, 139, 140, 141, 142, 143, 144, 145, 146, 147, 148, 149, 150, 151, 152, 153, 154, 155, 156, 157, 158, 159, 160, 161, 162, 163, 164, 165, 166, 167, 168, 169, 170, 171, 172, 173, 174, 175, 176, 177, 178, 179, 180, 181, 182, 183, 184, 185, 186, 187, 188, 189, 190, 191, 192, 193, 194, 195, 196, 197, 198, 199, 200, 201, 202, 203, 204, 205, 206, 207, 208, 209, 210, 211, 212, 213, 214, 215, 216, 217, 218, 219, 220, 221],
      "AcquisitionTime": ["122504.162500", "122506.162500", "122508.162500", "122510.162500", "122512.162500", "122514.162500", "122516.162500", "122518.162500", "122520.162500", "122522.162500", "122524.162500", "122526.162500", "122528.162500", "122530.162500", "122532.162500", "122534.162500", "122536.162500", "122538.162500", "122540.162500", "122542.162500", "122544.162500", "122546.162500", "122548.162500", "122550.162500", "122552.162500", "122554.162500", "122556.162500", "122558.162500", "122600.162500", "122602.162500", "122604.162500", "122606.162500", "122608.162500", "122610.162500", "122612.162500", "122614.162500", "122616.162500", "122618.162500", "122620.162500", "122622.162500", "122624.162500", "122626.162500", "122628.162500", "122630.162500", "122632.162500", "122634.162500", "122636.162500", "122638.162500", "122640.162500", "122642.162500", "122644.162500", "122646.162500", "122648.162500", "122650.162500", "122652.162500", "122654.162500", "122656.162500", "122658.162500", "122700.162500", "122702.162500", "122704.162500", "122706.162500", "122708.162500", "122710.162500", "122712.162500", "122714.162500", "122716.162500", "122718.162500", "122720.162500", "122722.162500", "122724.162500", "122726.162500", "122728.162500", "122730.162500", "122732.162500", "122734.162500", "122736.162500", "122738.162500", "122740.162500", "122742.162500", "122744.162500", "122746.162500", "122748.162500", "122750.162500", "122752.162500", "122754.162500", "122756.162500", "122758.162500", "122800.162500", "122802.162500", "122804.162500", "122806.162500", "122808.162500", "122810.162500", "122812.162500", "122814.162500", "122816.162500", "122818.162500", "122820.162500", "122822.162500", "122824.162500", "122826.162500", "122828.162500", "122830.162500", "122832.162500", "122834.162500", "122836.162500", "122838.162500", "122840.162500", "122842.162500", "122844.162500", "122846.162500", "122848.162500", "122850.162500", "122852.162500", "122854.162500", "122856.162500", "122858.162500", "122900.162500", "122902.162500", "122904.162500", "122906.162500", "122908.162500", "122910.162500", "122912.162500", "122914.162500", "122916.162500", "122918.162500", "122920.162500", "122922.162500", "122924.162500", "122926.162500", "122928.162500", "122930.162500", "122932.162500", "122934.162500", "122936.162500", "122938.162500", "122940.162500", "122942.162500", "122944.162500", "122946.162500", "122948.162500", "122950.162500", "122952.162500", "122954.162500", "122956.162500", "122958.162500", "123000.162500", "123002.162500", "123004.162500", "123006.162500", "123008.162500", "123010.162500", "123012.162500", "123014.162500", "123016.162500", "123018.162500", "123020.162500", "123022.162500", "123024.162500", "123026.162500", "123028.162500", "123030.162500", "123032.162500", "123034.162500", "123036.162500", "123038.162500", "123040.162500", "123042.162500", "123044.162500", "123046.162500", "123048.162500", "123050.162500", "123052.162500", "123054.162500", "123056.162500", "123058.162500", "123100.162500", "123102.162500", "123104.162500", "123106.162500", "123108.162500", "123110.162500", "123112.162500", "123114.162500", "123116.162500", "123118.162500", "123120.162500", "123122.162500", "123124.162500", "123126.162500", "123128.162500", "123130.162500", "123132.162500", "123134.162500", "123136.162500", "123138.162500", "123140.162500", "123142.162500", "123144.162500", "123146.162500", "123148.162500", "123150.162500", "123152.162500", "123154.162500", "123156.162500", "123158.162500", "123200.162500", "123202.162500", "123204.162500", "123206.162500", "123208.162500", "123210.162500", "123212.162500", "123214.162500", "123216.162500", "123218.162500", "123220.162500", "123222.162500", "123224.162500"],
      "ContentTime": ["122546.122000", "122546.134000", "122546.136000", "122546.139000", "122546.143000", "122546.145000", "122546.148000", "122546.151000", "122546.153000", "122546.156000", "122546.159000", "122546.162000", "122546.164000", "122546.167000", "122546.176000", "122546.179000", "122546.181000", "122546.184000", "122546.187000", "122546.189000", "122546.192000", "122626.118000", "122626.126000", "122626.129000", "122626.131000", "122626.134000", "122626.137000", "122626.139000", "122626.142000", "122626.145000", "122626.147000", "122626.150000", "122626.153000", "122626.155000", "122626.158000", "122626.161000", "122626.163000", "122626.166000", "122626.175000", "122626.178000", "122626.181000", "122706.119000", "122706.121000", "122706.142000", "122706.145000", "122706.148000", "122706.150000", "122706.153000", "122706.156000", "122706.158000", "122706.161000", "122706.164000", "122706.166000", "122706.169000", "122706.172000", "122706.175000", "122706.178000", "122706.180000", "122706.183000", "122706.186000", "122706.189000", "122746.119000", "122746.121000", "122746.124000", "122746.127000", "122746.129000", "122746.132000", "122746.135000", "122746.138000", "122746.140000", "122746.143000", "122746.146000", "122746.149000", "122746.151000", "122746.154000", "122746.157000", "122746.159000", "122746.162000", "122746.165000", "122746.173000", "122746.176000", "122826.118000", "122826.121000", "122826.124000", "122826.127000", "122826.140000", "122826.142000", "122826.145000", "122826.148000", "122826.150000", "122826.153000", "122826.156000", "122826.159000", "122826.161000", "122826.164000", "122826.166000", "122826.169000", "122826.172000", "122826.174000", "122826.177000", "122826.180000", "122846.119000", "122846.122000", "122846.124000", "122846.127000", "122846.130000", "122846.132000", "122846.135000", "122846.138000", "122846.140000", "122846.143000", "122926.119000", "122926.122000", "122926.124000", "122926.127000", "122926.130000", "122926.132000", "122926.135000", "122926.138000", "122926.140000", "122926.143000", "122926.146000", "122926.148000", "122926.151000", "122926.154000", "122926.156000", "122926.159000", "122926.162000", "122926.164000", "122926.167000", "122926.170000", "123006.119000", "123006.122000", "123006.124000", "123006.127000", "123006.130000", "123006.132000", "123006.135000", "123006.138000", "123006.140000", "123006.143000", "123006.146000", "123006.149000", "123006.151000", "123006.154000", "123006.157000", "123006.159000", "123006.162000", "123006.165000", "123006.167000", "123006.170000", "123046.118000", "123046.122000", "123046.124000", "123046.127000", "123046.130000", "123046.133000", "123046.135000", "123046.138000", "123046.140000", "123046.143000", "123046.146000", "123046.148000", "123046.151000", "123046.154000", "123046.156000", "123046.159000", "123046.162000", "123046.165000", "123046.167000", "123046.170000", "123126.119000", "123126.122000", "123126.124000", "123126.127000", "123126.130000", "123126.133000", "123126.135000", "123126.138000", "123126.140000", "123126.143000", "123126.146000", "123126.148000", "123126.151000", "123126.154000", "123126.157000", "123126.159000", "123126.162000", "123126.165000", "123126.167000", "123126.170000", "123206.119000", "123206.129000", "123206.131000", "123206.135000", "123206.137000", "123206.140000", "123206.143000", "123206.146000", "123206.148000", "123206.151000", "123206.154000", "123206.157000", "123206.160000", "123206.163000", "123206.166000", "123206.169000", "123206.172000", "123206.175000", "123206.177000", "123206.180000", "123225.923000", "123225.926000", "123225.929000", "123225.932000", "123225.934000", "123225.938000", "123225.940000", "123225.943000", "123225.946000", "123225.949000"],
      "InstanceCreationTime": ["122546.122000", "122546.134000", "122546.136000", "122546.139000", "122546.143000", "122546.145000", "122546.148000", "122546.151000", "122546.153000", "122546.156000", "122546.159000", "122546.162000", "122546.164000", "122546.167000", "122546.176000", "122546.179000", "122546.181000", "122546.184000", "122546.187000", "122546.189000", "122546.192000", "122626.118000", "122626.126000", "122626.129000", "122626.131000", "122626.134000", "122626.137000", "122626.139000", "122626.142000", "122626.145000", "122626.147000", "122626.150000", "122626.153000", "122626.155000", "122626.158000", "122626.161000", "122626.163000", "122626.166000", "122626.175000", "122626.178000", "122626.181000", "122706.119000", "122706.121000", "122706.142000", "122706.145000", "122706.148000", "122706.150000", "122706.153000", "122706.156000", "122706.158000", "122706.161000", "122706.164000", "122706.166000", "122706.169000", "122706.172000", "122706.175000", "122706.178000", "122706.180000", "122706.183000", "122706.186000", "122706.189000", "122746.119000", "122746.121000", "122746.124000", "122746.127000", "122746.129000", "122746.132000", "122746.135000", "122746.138000", "122746.140000", "122746.143000", "122746.146000", "122746.149000", "122746.151000", "122746.154000", "122746.157000", "122746.159000", "122746.162000", "122746.165000", "122746.173000", "122746.176000", "122826.118000", "122826.121000", "122826.124000", "122826.127000", "122826.140000", "122826.142000", "122826.145000", "122826.148000", "122826.150000", "122826.153000", "122826.156000", "122826.159000", "122826.161000", "122826.164000", "122826.166000", "122826.169000", "122826.172000", "122826.174000", "122826.177000", "122826.180000", "122846.119000", "122846.122000", "122846.124000", "122846.127000", "122846.130000", "122846.132000", "122846.135000", "122846.138000", "122846.140000", "122846.143000", "122926.119000", "122926.122000", "122926.124000", "122926.127000", "122926.130000", "122926.132000", "122926.135000", "122926.138000", "122926.140000", "122926.143000", "122926.146000", "122926.148000", "122926.151000", "122926.154000", "122926.156000", "122926.159000", "122926.162000", "122926.164000", "122926.167000", "122926.170000", "123006.119000", "123006.122000", "123006.124000", "123006.127000", "123006.130000", "123006.132000", "123006.135000", "123006.138000", "123006.140000", "123006.143000", "123006.146000", "123006.149000", "123006.151000", "123006.154000", "123006.157000", "123006.159000", "123006.162000", "123006.165000", "123006.167000", "123006.170000", "123046.118000", "123046.122000", "123046.124000", "123046.127000", "123046.130000", "123046.133000", "123046.135000", "123046.138000", "123046.140000", "123046.143000", "123046.146000", "123046.148000", "123046.151000", "123046.154000", "123046.156000", "123046.159000", "123046.162000", "123046.165000", "123046.167000", "123046.170000", "123126.119000", "123126.122000", "123126.124000", "123126.127000", "123126.130000", "123126.133000", "123126.135000", "123126.138000", "123126.140000", "123126.143000", "123126.146000", "123126.148000", "123126.151000", "123126.154000", "123126.157000", "123126.159000", "123126.162000", "123126.165000", "123126.167000", "123126.170000", "123206.119000", "123206.129000", "123206.131000", "123206.135000", "123206.137000", "123206.140000", "123206.143000", "123206.146000", "123206.148000", "123206.151000", "123206.154000", "123206.157000", "123206.160000", "123206.163000", "123206.166000", "123206.169000", "123206.172000", "123206.175000", "123206.177000", "123206.180000", "123225.923000", "123225.926000", "123225.929000", "123225.932000", "123225.934000", "123225.938000", "123225.940000", "123225.943000", "123225.946000", "123225.949000"],
      "InstanceNumber": [1, 2, 3, 4, 5, 6, 7, 8, 9, 10, 11, 12, 13, 14, 15, 16, 17, 18, 19, 20, 21, 22, 23, 24, 25, 26, 27, 28, 29, 30, 31, 32, 33, 34, 35, 36, 37, 38, 39, 40, 41, 42, 43, 44, 45, 46, 47, 48, 49, 50, 51, 52, 53, 54, 55, 56, 57, 58, 59, 60, 61, 62, 63, 64, 65, 66, 67, 68, 69, 70, 71, 72, 73, 74, 75, 76, 77, 78, 79, 80, 81, 82, 83, 84, 85, 86, 87, 88, 89, 90, 91, 92, 93, 94, 95, 96, 97, 98, 99, 100, 101, 102, 103, 104, 105, 106, 107, 108, 109, 110, 111, 112, 113, 114, 115, 116, 117, 118, 119, 120, 121, 122, 123, 124, 125, 126, 127, 128, 129, 130, 131, 132, 133, 134, 135, 136, 137, 138, 139, 140, 141, 142, 143, 144, 145, 146, 147, 148, 149, 150, 151, 152, 153, 154, 155, 156, 157, 158, 159, 160, 161, 162, 163, 164, 165, 166, 167, 168, 169, 170, 171, 172, 173, 174, 175, 176, 177, 178, 179, 180, 181, 182, 183, 184, 185, 186, 187, 188, 189, 190, 191, 192, 193, 194, 195, 196, 197, 198, 199, 200, 201, 202, 203, 204, 205, 206, 207, 208, 209, 210, 211, 212, 213, 214, 215, 216, 217, 218, 219, 220, 221],
      "LargestImagePixelValue": [2806, 2315, 2568, 2572, 2429, 2617, 2542, 2651, 2854, 2730, 2549, 2507, 2410, 2734, 2589, 2425, 2670, 2898, 2443, 2493, 2423, 2539, 2497, 2514, 2649, 2615, 2253, 2551, 2401, 2265, 2557, 2456, 2377, 2429, 2555, 2663, 2671, 2473, 2179, 2309, 2284, 2378, 2407, 2409, 2575, 2477, 2511, 2880, 2664, 2557, 2612, 2700, 2486, 2220, 2631, 2458, 2707, 2600, 2807, 2365, 2509, 2690, 2364, 2590, 2464, 2334, 2478, 2569, 2492, 2582, 2349, 2338, 2575, 2579, 2406, 2377, 2232, 2427, 2531, 2581, 2489, 2321, 2432, 2519, 2649, 2565, 2796, 2609, 2205, 2178, 2005, 2321, 2813, 2508, 2583, 2355, 2243, 2811, 2517, 2553, 2383, 2534, 2467, 1974, 2392, 2369, 2320, 2442, 2361, 2584, 2761, 2610, 2584, 2390, 2426, 2512, 2560, 2118, 2484, 2281, 2651, 2639, 2549, 2260, 2526, 2319, 2473, 2577, 2649, 2308, 2595, 2327, 2552, 2797, 2662, 2377, 2630, 2601, 2468, 2592, 2591, 2278, 2193, 2548, 2347, 2437, 2788, 2587, 2290, 2566, 2519, 2239, 2578, 2457, 2698, 2639, 2300, 2684, 2249, 2648, 2319, 2702, 2443, 2484, 2303, 2519, 2331, 2331, 2108, 2468, 2310, 2652, 2505, 2493, 2623, 2213, 2550, 2541, 2411, 2746, 2431, 2586, 2459, 2627, 2461, 2746, 2544, 2506, 2477, 2397, 2195, 2349, 2241, 2658, 2463, 2738, 2249, 2689, 2260, 2691, 2475, 2275, 2677, 2436, 2107, 2583, 2575, 2820, 2485, 2283, 2286, 2278, 2588, 2231, 2460, 2618, 2287, 2484, 2351, 2267, 2591],
      "WindowCenter": [856.0, 855.0, 855.0, 856.0, 855.0, 856.0, 856.0, 855.0, 855.0, 855.0, 854.0, 855.0, 855.0, 855.0, 855.0, 853.0, 853.0, 852.0, 853.0, 853.0, 853.0, 853.0, 854.0, 854.0, 854.0, 854.0, 854.0, 854.0, 854.0, 855.0, 855.0, 855.0, 855.0, 854.0, 854.0, 854.0, 854.0, 854.0, 854.0, 855.0, 854.0, 855.0, 857.0, 857.0, 856.0, 856.0, 855.0, 855.0, 854.0, 854.0, 854.0, 854.0, 854.0, 854.0, 854.0, 854.0, 854.0, 854.0, 854.0, 854.0, 855.0, 854.0, 854.0, 855.0, 854.0, 854.0, 855.0, 855.0, 855.0, 854.0, 855.0, 855.0, 855.0, 854.0, 854.0, 855.0, 855.0, 856.0, 855.0, 855.0, 854.0, 855.0, 856.0, 856.0, 854.0, 854.0, 854.0, 852.0, 851.0, 852.0, 854.0, 856.0, 855.0, 855.0, 854.0, 854.0, 855.0, 854.0, 853.0, 853.0, 854.0, 853.0, 853.0, 854.0, 856.0, 856.0, 856.0, 856.0, 856.0, 855.0, 855.0, 854.0, 853.0, 854.0, 854.0, 854.0, 853.0, 853.0, 854.0, 854.0, 854.0, 854.0, 853.0, 854.0, 855.0, 855.0, 854.0, 854.0, 855.0, 854.0, 855.0, 856.0, 855.0, 854.0, 854.0, 855.0, 855.0, 855.0, 855.0, 855.0, 855.0, 854.0, 855.0, 855.0, 855.0, 855.0, 855.0, 855.0, 855.0, 856.0, 855.0, 855.0, 854.0, 855.0, 855.0, 854.0, 854.0, 854.0, 854.0, 854.0, 854.0, 855.0, 855.0, 855.0, 854.0, 854.0, 854.0, 854.0, 854.0, 855.0, 856.0, 856.0, 855.0, 855.0, 855.0, 855.0, 855.0, 855.0, 856.0, 855.0, 856.0, 856.0, 855.0, 856.0, 856.0, 856.0, 855.0, 855.0, 854.0, 855.0, 855.0, 854.0, 853.0, 854.0, 855.0, 855.0, 854.0, 855.0, 856.0, 856.0, 855.0, 855.0, 855.0, 854.0, 855.0, 855.0, 855.0, 854.0, 854.0, 854.0, 854.0, 855.0, 855.0, 855.0, 856.0, 855.0, 856.0, 856.0, 856.0, 856.0, 856.0],
      "WindowWidth": [1919.0, 1912.0, 1914.0, 1918.0, 1913.0, 1917.0, 1917.0, 1917.0, 1918.0, 1914.0, 1912.0, 1916.0, 1915.0, 1915.0, 1914.0, 1908.0, 1909.0, 1909.0, 1906.0, 1908.0, 1906.0, 1911.0, 1910.0, 1911.0, 1914.0, 1913.0, 1910.0, 1912.0, 1910.0, 1913.0, 1914.0, 1914.0, 1912.0, 1912.0, 1912.0, 1911.0, 1913.0, 1911.0, 1909.0, 1911.0, 1909.0, 1916.0, 1920.0, 1920.0, 1918.0, 1917.0, 1915.0, 1917.0, 1913.0, 1913.0, 1913.0, 1913.0, 1912.0, 1908.0, 1913.0, 1912.0, 1912.0, 1913.0, 1915.0, 1910.0, 1913.0, 1914.0, 1912.0, 1914.0, 1910.0, 1911.0, 1915.0, 1917.0, 1916.0, 1913.0, 1914.0, 1913.0, 1914.0, 1912.0, 1910.0, 1914.0, 1913.0, 1917.0, 1916.0, 1916.0, 1912.0, 1912.0, 1916.0, 1917.0, 1911.0, 1911.0, 1911.0, 1903.0, 1899.0, 1901.0, 1907.0, 1915.0, 1916.0, 1913.0, 1913.0, 1910.0, 1910.0, 1913.0, 1909.0, 1908.0, 1910.0, 1909.0, 1907.0, 1906.0, 1916.0, 1915.0, 1914.0, 1916.0, 1916.0, 1915.0, 1914.0, 1912.0, 1909.0, 1908.0, 1909.0, 1911.0, 1909.0, 1905.0, 1912.0, 1910.0, 1913.0, 1912.0, 1909.0, 1908.0, 1914.0, 1911.0, 1912.0, 1912.0, 1915.0, 1908.0, 1917.0, 1914.0, 1914.0, 1913.0, 1913.0, 1911.0, 1915.0, 1916.0, 1914.0, 1914.0, 1913.0, 1910.0, 1912.0, 1914.0, 1912.0, 1914.0, 1917.0, 1915.0, 1914.0, 1917.0, 1917.0, 1912.0, 1913.0, 1914.0, 1914.0, 1913.0, 1909.0, 1913.0, 1907.0, 1912.0, 1910.0, 1916.0, 1913.0, 1912.0, 1908.0, 1911.0, 1912.0, 1910.0, 1907.0, 1915.0, 1917.0, 1919.0, 1915.0, 1915.0, 1915.0, 1911.0, 1915.0, 1914.0, 1916.0, 1917.0, 1915.0, 1918.0, 1915.0, 1918.0, 1916.0, 1919.0, 1914.0, 1912.0, 1911.0, 1912.0, 1911.0, 1910.0, 1905.0, 1913.0, 1914.0, 1915.0, 1908.0, 1918.0, 1914.0, 1918.0, 1913.0, 1912.0, 1914.0, 1910.0, 1908.0, 1914.0, 1915.0, 1914.0, 1910.0, 1909.0, 1908.0, 1910.0, 1916.0, 1912.0, 1915.0, 1915.0, 1913.0, 1916.0, 1913.0, 1913.0, 1916.0]
    },
    "slices": {}
  }
}