{
  "AcquisitionMatrixPE": 70,
  "AcquisitionNumber": 1,
  "AcquisitionTime": "13:51:0.025000",
  "BandwidthPerPixelPhaseEncode": 51.948,
  "BaseResolution": 70,
  "BodyPartExamined": "HEAD",
  "CoilCombinationMethod": "Sum of Squares",
  "ConsistencyInfo": "N4_VE11C_LATEST_20160120",
  "ConversionSoftware": "dcm2niix",
  "ConversionSoftwareVersion": "v1.0.20220720",
  "DerivedVendorReportedEchoSpacing": 0.000550001,
  "DeviceSerialNumber": "66061",
  "DwellTime": 3.3e-06,
  "EchoTime": 0.022,
  "EchoTrainLength": 35,
  "EffectiveEchoSpacing": 0.000275,
  "FlipAngle": 90,
  "HeudiconvVersion": "1.1.1",
  "ImageOrientationPatientDICOM": [0.999962, 0.00277875, 0.00820649, -0.00122164, 0.982931, -0.183968],
  "ImageOrientationText": "Tra>Cor(-10.6)>Sag(0.5)",
  "ImageType": [
    "ORIGINAL",
    "PRIMARY",
    "M",
    "ND",
    "NORM",
    "MOSAIC"
],
  "ImagingFrequency": 123.255,
  "InPlanePhaseEncodingDirectionDICOM": "COL",
  "InstitutionAddress": "Street StreetNo,City/1c4204/,District,KR,ZIP",
  "InstitutionName": "SKKU",
  "InstitutionalDepartmentName": "Department",
  "MRAcquisitionType": "2D",
  "MagneticFieldStrength": 3,
  "Manufacturer": "Siemens",
  "ManufacturersModelName": "Prisma",
  "MatrixCoilMode": "GRAPPA",
  "Modality": "MR",
  "NonlinearGradientCorrection": false,
  "ParallelReductionFactorInPlane": 2,
  "PartialFourier": 1,
  "PatientPosition": "HFS",
  "PercentPhaseFOV": 100,
  "PercentSampling": 100,
  "PhaseEncodingDirection": "j-",
  "PhaseEncodingSteps": 70,
  "PhaseResolution": 1,
  "PixelBandwidth": 2165,
  "ProcedureStepDescription": "Head^PI:Others",
  "ProtocolName": "BOLD_ep2d_3x3x3_response1",
  "PulseSequenceDetails": "%SiemensSeq%\\ep2d_pace",
  "ReceiveCoilActiveElements": "HC1-7",
  "ReceiveCoilName": "HeadNeck_64",
  "ReconMatrixPE": 70,
  "RefLinesPE": 24,
  "RepetitionTime": 2,
  "SAR": 0.130313,
  "ScanOptions": "FS",
  "ScanningSequence": "EP",
  "SequenceName": "*epfid2d1_70",
  "SequenceVariant": "SK",
  "SeriesDescription": "BOLD_ep2d_3x3x3_response1",
  "SeriesNumber": 14,
  "ShimSetting": [5035, 3755, 4414, 400, -85, -107, -102, 51],
  "SliceThickness": 3,
  "SliceTiming": [0.99, 0, 1.0375, 0.0475, 1.085, 0.095, 1.13, 0.1425, 1.1775, 0.1875, 1.225, 0.235, 1.2725, 0.2825, 1.32, 0.33, 1.3675, 0.3775, 1.415, 0.425, 1.46, 0.47, 1.5075, 0.5175, 1.555, 0.565, 1.6025, 0.6125, 1.65, 0.66, 1.6975, 0.7075, 1.745, 0.755, 1.79, 0.8, 1.8375, 0.8475, 1.885, 0.895, 1.9325, 0.9425],
  "SoftwareVersions": "syngo MR E11",
  "SpacingBetweenSlices": 3,
  "StationName": "AWP66061",
  "TaskName": "response",
  "TotalReadoutTime": 0.018975,
  "TxRefAmp": 241.815,
  "dcmmeta_affine": [
    [-2.999887466430664, -0.003664909629151225, 0.025732850655913353, 109.5219497680664],
    [-0.008336259983479977, 2.948794364929199, -0.5518540143966675, -88.04600524902344],
    [0.024619461968541145, 0.5519048571586609, 2.9486937522888184, -60.71314239501953],
    [0.0, 0.0, 0.0, 1.0]
],
  "dcmmeta_reorient_transform": [
    [0.0, -1.0, 0.0, 69.0],
    [1.0, 0.0, 0.0, 0.0],
    [0.0, 0.0, -1.0, 41.0],
    [0.0, 0.0, 0.0, 1.0]
],
  "dcmmeta_shape": [70, 70, 42, 341],
  "dcmmeta_slice_dim": 2,
  "dcmmeta_version": 0.6,
  "global": {
    "const": {
      "AcquisitionMatrix": [70, 0, 0, 70],
      "AngioFlag": "N",
      "BitsAllocated": 16,
      "BitsStored": 12,
      "BodyPartExamined": "HEAD",
      "Columns": 490,
      "EchoNumbers": 1,
      "EchoTime": 22.0,
      "EchoTrainLength": 35,
      "FlipAngle": 90.0,
      "HighBit": 11,
      "ImageOrientationPatient": [0.99996246534216, 0.00277875342488, 0.00820648744745, -0.0012216365284, 0.98293142161815, -0.1839682798743],
      "ImagePositionPatient": [-739.53084090798, -713.79219044862, 208.99466322231],
      "ImageType": [
        "ORIGINAL",
        "PRIMARY",
        "M",
        "ND",
        "NORM",
        "MOSAIC"
],
      "ImagedNucleus": "1H",
      "ImagingFrequency": 123.254632,
      "InPlanePhaseEncodingDirection": "COL",
      "MRAcquisitionType": "2D",
      "MagneticFieldStrength": 3.0,
      "Manufacturer": "SIEMENS",
      "ManufacturerModelName": "Prisma",
      "Modality": "MR",
      "NumberOfAverages": 1.0,
      "NumberOfPhaseEncodingSteps": 70,
      "PercentPhaseFieldOfView": 100.0,
      "PercentSampling": 100.0,
      "PerformedProcedureStepStartTime": "124455.403000",
      "PhotometricInterpretation": "MONOCHROME2",
      "PixelBandwidth": 2165.0,
      "PixelRepresentation": 0,
      "PixelSpacing": [3.0, 3.0],
      "ProtocolName": "BOLD_ep2d_3x3x3_response1",
      "RepetitionTime": 2000.0,
      "Rows": 490,
      "SAR": 0.13031294968848,
      "SamplesPerPixel": 1,
      "ScanOptions": "FS",
      "ScanningSequence": "EP",
      "SequenceName": "*epfid2d1_70",
      "SequenceVariant": "SK",
      "SeriesDescription": "BOLD_ep2d_3x3x3_response1",
      "SeriesNumber": 14,
      "SeriesTime": "135149.768000",
      "SliceLocation": 80.46079586925,
      "SliceThickness": 3.0,
      "SmallestImagePixelValue": 0,
      "SoftwareVersions": "syngo MR E11",
      "SpacingBetweenSlices": 2.9999999501522,
      "SpecificCharacterSet": "ISO_IR 100",
      "StudyID": "1",
      "StudyTime": "124455.324000",
      "TransmitCoilName": "Body",
      "VariableFlipAngleFlag": "N",
      "WindowCenterWidthExplanation": "Algo1",
      "dBdt": 0.0},
    "slices": {}
  },
  "time": {
    "samples": {
      "AcquisitionNumber": [1, 2, 3, 4, 5, 6, 7, 8, 9, 10, 11, 12, 13, 14, 15, 16, 17, 18, 19, 20, 21, 22, 23, 24, 25, 26, 27, 28, 29, 30, 31, 32, 33, 34, 35, 36, 37, 38, 39, 40, 41, 42, 43, 44, 45, 46, 47, 48, 49, 50, 51, 52, 53, 54, 55, 56, 57, 58, 59, 60, 61, 62, 63, 64, 65, 66, 67, 68, 69, 70, 71, 72, 73, 74, 75, 76, 77, 78, 79, 80, 81, 82, 83, 84, 85, 86, 87, 88, 89, 90, 91, 92, 93, 94, 95, 96, 97, 98, 99, 100, 101, 102, 103, 104, 105, 106, 107, 108, 109, 110, 111, 112, 113, 114, 115, 116, 117, 118, 119, 120, 121, 122, 123, 124, 125, 126, 127, 128, 129, 130, 131, 132, 133, 134, 135, 136, 137, 138, 139, 140, 141, 142, 143, 144, 145, 146, 147, 148, 149, 150, 151, 152, 153, 154, 155, 156, 157, 158, 159, 160, 161, 162, 163, 164, 165, 166, 167, 168, 169, 170, 171, 172, 173, 174, 175, 176, 177, 178, 179, 180, 181, 182, 183, 184, 185, 186, 187, 188, 189, 190, 191, 192, 193, 194, 195, 196, 197, 198, 199, 200, 201, 202, 203, 204, 205, 206, 207, 208, 209, 210, 211, 212, 213, 214, 215, 216, 217, 218, 219, 220, 221, 222, 223, 224, 225, 226, 227, 228, 229, 230, 231, 232, 233, 234, 235, 236, 237, 238, 239, 240, 241, 242, 243, 244, 245, 246, 247, 248, 249, 250, 251, 252, 253, 254, 255, 256, 257, 258, 259, 260, 261, 262, 263, 264, 265, 266, 267, 268, 269, 270, 271, 272, 273, 274, 275, 276, 277, 278, 279, 280, 281, 282, 283, 284, 285, 286, 287, 288, 289, 290, 291, 292, 293, 294, 295, 296, 297, 298, 299, 300, 301, 302, 303, 304, 305, 306, 307, 308, 309, 310, 311, 312, 313, 314, 315, 316, 317, 318, 319, 320, 321, 322, 323, 324, 325, 326, 327, 328, 329, 330, 331, 332, 333, 334, 335, 336, 337, 338, 339, 340, 341],
      "AcquisitionTime": ["135100.025000", "135102.025000", "135104.025000", "135106.025000", "135108.025000", "135110.025000", "135112.025000", "135114.025000", "135116.025000", "135118.025000", "135120.025000", "135122.025000", "135124.025000", "135126.025000", "135128.025000", "135130.025000", "135132.025000", "135134.025000", "135136.025000", "135138.025000", "135140.025000", "135142.025000", "135144.025000", "135146.025000", "135148.025000", "135150.025000", "135152.025000", "135154.025000", "135156.025000", "135158.025000", "135200.025000", "135202.025000", "135204.025000", "135206.025000", "135208.025000", "135210.025000", "135212.025000", "135214.025000", "135216.025000", "135218.025000", "135220.025000", "135222.025000", "135224.025000", "135226.025000", "135228.025000", "135230.025000", "135232.025000", "135234.025000", "135236.025000", "135238.025000", "135240.025000", "135242.025000", "135244.025000", "135246.025000", "135248.025000", "135250.025000", "135252.025000", "135254.025000", "135256.025000", "135258.025000", "135300.025000", "135302.025000", "135304.025000", "135306.025000", "135308.025000", "135310.025000", "135312.025000", "135314.025000", "135316.025000", "135318.025000", "135320.025000", "135322.025000", "135324.025000", "135326.025000", "135328.025000", "135330.025000", "135332.025000", "135334.025000", "135336.025000", "135338.025000", "135340.025000", "135342.025000", "135344.025000", "135346.025000", "135348.025000", "135350.025000", "135352.025000", "135354.025000", "135356.025000", "135358.025000", "135400.025000", "135402.025000", "135404.025000", "135406.025000", "135408.025000", "135410.025000", "135412.025000", "135414.025000", "135416.025000", "135418.025000", "135420.025000", "135422.025000", "135424.025000", "135426.025000", "135428.025000", "135430.025000", "135432.025000", "135434.025000", "135436.025000", "135438.025000", "135440.025000", "135442.025000", "135444.025000", "135446.025000", "135448.025000", "135450.025000", "135452.025000", "135454.025000", "135456.025000", "135458.025000", "135500.025000", "135502.025000", "135504.025000", "135506.025000", "135508.025000", "135510.025000", "135512.025000", "135514.025000", "135516.025000", "135518.025000", "135520.025000", "135522.025000", "135524.025000", "135526.025000", "135528.025000", "135530.025000", "135532.025000", "135534.025000", "135536.025000", "135538.025000", "135540.025000", "135542.025000", "135544.025000", "135546.025000", "135548.025000", "135550.025000", "135552.025000", "135554.025000", "135556.025000", "135558.025000", "135600.025000", "135602.025000", "135604.025000", "135606.025000", "135608.025000", "135610.025000", "135612.025000", "135614.025000", "135616.025000", "135618.025000", "135620.025000", "135622.025000", "135624.025000", "135626.025000", "135628.025000", "135630.025000", "135632.025000", "135634.025000", "135636.025000", "135638.025000", "135640.025000", "135642.025000", "135644.025000", "135646.025000", "135648.025000", "135650.025000", "135652.025000", "135654.025000", "135656.025000", "135658.025000", "135700.025000", "135702.025000", "135704.025000", "135706.025000", "135708.025000", "135710.025000", "135712.025000", "135714.025000", "135716.025000", "135718.025000", "135720.025000", "135722.025000", "135724.025000", "135726.025000", "135728.025000", "135730.025000", "135732.025000", "135734.025000", "135736.025000", "135738.025000", "135740.025000", "135742.025000", "135744.025000", "135746.025000", "135748.025000", "135750.025000", "135752.025000", "135754.025000", "135756.025000", "135758.025000", "135800.025000", "135802.025000", "135804.025000", "135806.025000", "135808.025000", "135810.025000", "135812.025000", "135814.025000", "135816.025000", "135818.025000", "135820.025000", "135822.025000", "135824.025000", "135826.025000", "135828.025000", "135830.025000", "135832.025000", "135834.025000", "135836.025000", "135838.025000", "135840.025000", "135842.025000", "135844.025000", "135846.025000", "135848.025000", "135850.025000", "135852.025000", "135854.025000", "135856.025000", "135858.025000", "135900.025000", "135902.025000", "135904.025000", "135906.025000", "135908.025000", "135910.025000", "135912.025000", "135914.025000", "135916.025000", "135918.025000", "135920.025000", "135922.025000", "135924.025000", "135926.025000", "135928.025000", "135930.025000", "135932.025000", "135934.025000", "135936.025000", "135938.025000", "135940.025000", "135942.025000", "135944.025000", "135946.025000", "135948.025000", "135950.025000", "135952.025000", "135954.025000", "135956.025000", "135958.025000", "140000.025000", "140002.025000", "140004.025000", "140006.025000", "140008.025000", "140010.025000", "140012.025000", "140014.025000", "140016.025000", "140018.025000", "140020.025000", "140022.025000", "140024.025000", "140026.025000", "140028.025000", "140030.025000", "140032.025000", "140034.025000", "140036.025000", "140038.025000", "140040.025000", "140042.025000", "140044.025000", "140046.025000", "140048.025000", "140050.025000", "140052.025000", "140054.025000", "140056.025000", "140058.025000", "140100.025000", "140102.025000", "140104.025000", "140106.025000", "140108.025000", "140110.025000", "140112.025000", "140114.025000", "140116.025000", "140118.025000", "140120.025000", "140122.025000", "140124.025000", "140126.025000", "140128.025000", "140130.025000", "140132.025000", "140134.025000", "140136.025000", "140138.025000", "140140.025000", "140142.025000", "140144.025000", "140146.025000", "140148.025000", "140150.025000", "140152.025000", "140154.025000", "140156.025000", "140158.025000", "140200.025000", "140202.025000", "140204.025000", "140206.025000", "140208.025000", "140210.025000", "140212.025000", "140214.025000", "140216.025000", "140218.025000", "140220.025000"],
      "ContentTime": ["135149.771000", "135149.775000", "135149.778000", "135149.781000", "135149.783000", "135149.786000", "135149.789000", "135149.792000", "135149.794000", "135149.797000", "135149.800000", "135149.803000", "135149.805000", "135149.808000", "135149.811000", "135149.821000", "135149.824000", "135149.830000", "135149.833000", "135149.835000", "135149.838000", "135149.841000", "135149.844000", "135149.846000", "135149.849000", "135209.768000", "135209.771000", "135209.774000", "135209.776000", "135209.779000", "135209.782000", "135209.785000", "135209.787000", "135209.790000", "135209.793000", "135249.768000", "135249.771000", "135249.774000", "135249.776000", "135249.779000", "135249.782000", "135249.785000", "135249.787000", "135249.790000", "135249.793000", "135249.795000", "135249.798000", "135249.810000", "135249.813000", "135249.815000", "135249.818000", "135249.821000", "135249.824000", "135249.826000", "135249.829000", "135329.767000", "135329.770000", "135329.773000", "135329.775000", "135329.778000", "135329.781000", "135329.784000", "135329.786000", "135329.789000", "135329.792000", "135329.794000", "135329.797000", "135329.800000", "135329.812000", "135329.815000", "135329.818000", "135329.820000", "135329.823000", "135329.826000", "135329.829000", "135409.767000", "135409.770000", "135409.772000", "135409.775000", "135409.778000", "135409.781000", "135409.783000", "135409.786000", "135409.789000", "135409.792000", "135409.794000", "135409.797000", "135409.800000", "135409.803000", "135409.805000", "135409.808000", "135409.811000", "135409.814000", "135409.817000", "135409.819000", "135449.768000", "135449.771000", "135449.773000", "135449.776000", "135449.779000", "135449.782000", "135449.784000", "135449.787000", "135449.790000", "135449.793000", "135449.795000", "135449.798000", "135449.801000", "135449.804000", "135449.806000", "135449.815000", "135449.818000", "135449.821000", "135449.824000", "135449.826000", "135529.768000", "135529.771000", "135529.773000", "135529.776000", "135529.779000", "135529.782000", "135529.784000", "135529.787000", "135529.790000", "135529.793000", "135529.795000", "135529.798000", "135529.801000", "135529.804000", "135529.814000", "135529.817000", "135529.820000", "135529.822000", "135529.825000", "135529.828000", "135609.767000", "135609.782000", "135609.785000", "135609.788000", "135609.791000", "135609.793000", "135609.796000", "135609.799000", "135609.801000", "135609.804000", "135609.807000", "135609.810000", "135609.812000", "135609.815000", "135609.818000", "135609.821000", "135609.823000", "135609.826000", "135609.829000", "135609.831000", "135649.768000", "135649.771000", "135649.773000", "135649.785000", "135649.787000", "135649.790000", "135649.793000", "135649.796000", "135649.798000", "135649.801000", "135649.804000", "135649.807000", "135649.809000", "135649.812000", "135649.815000", "135649.818000", "135649.820000", "135649.823000", "135649.826000", "135649.829000", "135729.768000", "135729.771000", "135729.774000", "135729.776000", "135729.779000", "135729.782000", "135729.785000", "135729.788000", "135729.790000", "135729.793000", "135729.796000", "135729.801000", "135729.804000", "135729.807000", "135729.810000", "135729.812000", "135729.815000", "135729.818000", "135729.821000", "135729.823000", "135809.767000", "135809.770000", "135809.772000", "135809.775000", "135809.778000", "135809.781000", "135809.783000", "135809.786000", "135809.789000", "135809.792000", "135809.795000", "135809.797000", "135809.800000", "135809.803000", "135809.806000", "135809.808000", "135809.811000", "135809.814000", "135809.817000", "135809.819000", "135849.767000", "135849.770000", "135849.772000", "135849.775000", "135849.778000", "135849.781000", "135849.784000", "135849.786000", "135849.789000", "135849.792000", "135849.795000", "135849.797000", "135849.800000", "135849.803000", "135849.806000", "135849.809000", "135849.811000", "135849.814000", "135849.817000", "135849.820000", "135929.768000", "135929.771000", "135929.773000", "135929.776000", "135929.779000", "135929.782000", "135929.785000", "135929.787000", "135929.790000", "135929.793000", "135929.796000", "135929.798000", "135929.801000", "135929.804000", "135929.807000", "135929.809000", "135929.812000", "135929.815000", "135929.818000", "135929.820000", "140009.768000", "140009.771000", "140009.774000", "140009.777000", "140009.779000", "140009.782000", "140009.785000", "140009.788000", "140009.791000", "140009.793000", "140009.796000", "140009.799000", "140009.802000", "140009.805000", "140009.807000", "140009.810000", "140009.813000", "140009.816000", "140009.819000", "140009.822000", "140049.767000", "140049.770000", "140049.772000", "140049.775000", "140049.778000", "140049.781000", "140049.784000", "140049.786000", "140049.789000", "140049.792000", "140049.795000", "140049.797000", "140049.800000", "140049.803000", "140049.806000", "140049.809000", "140049.811000", "140049.814000", "140049.817000", "140049.820000", "140129.768000", "140129.771000", "140129.774000", "140129.777000", "140129.779000", "140129.782000", "140129.785000", "140129.788000", "140129.790000", "140129.793000", "140129.796000", "140129.799000", "140129.801000", "140129.804000", "140129.807000", "140129.810000", "140129.812000", "140129.815000", "140129.818000", "140129.821000", "140209.768000", "140209.771000", "140209.774000", "140209.777000", "140209.779000", "140209.782000", "140209.785000", "140209.788000", "140209.790000", "140209.793000", "140209.796000", "140209.799000", "140209.801000", "140209.804000", "140209.807000", "140209.810000", "140209.812000", "140209.815000", "140209.818000", "140209.821000", "140221.587000", "140221.590000", "140221.593000", "140221.596000", "140221.599000", "140221.602000"],
      "DataSetTrailingPadding": [
        "\u0000\u0000\u0000\u0000\u0000\u0000\u0000\u0000\u0000\u0000\u0000\u0000\u0000\u0000\u0000\u0000\u0000\u0000\u0000\u0000\u0000\u0000\u0000\u0000\u0000\u0000\u0000\u0000\u0000\u0000\u0000\u0000\u0000\u0000\u0000\u0000\u0000\u0000\u0000\u0000\u0000\u0000\u0000\u0000\u0000\u0000\u0000\u0000\u0000\u0000\u0000\u0000\u0000\u0000\u0000\u0000\u0000\u0000\u0000\u0000\u0000\u0000\u0000\u0000\u0000\u0000\u0000\u0000\u0000\u0000\u0000\u0000\u0000\u0000\u0000\u0000\u0000\u0000",
        "\u0000\u0000\u0000\u0000\u0000\u0000\u0000\u0000\u0000\u0000\u0000\u0000\u0000\u0000\u0000\u0000\u0000\u0000\u0000\u0000\u0000\u0000\u0000\u0000\u0000\u0000\u0000\u0000\u0000\u0000\u0000\u0000\u0000\u0000\u0000\u0000\u0000\u0000\u0000\u0000\u0000\u0000\u0000\u0000\u0000\u0000\u0000\u0000\u0000\u0000\u0000\u0000\u0000\u0000\u0000\u0000\u0000\u0000\u0000\u0000\u0000\u0000\u0000\u0000\u0000\u0000\u0000\u0000\u0000\u0000\u0000\u0000\u0000\u0000\u0000\u0000\u0000\u0000\u0000\u0000",
        "\u0000\u0000\u0000\u0000\u0000\u0000\u0000\u0000\u0000\u0000\u0000\u0000\u0000\u0000\u0000\u0000\u0000\u0000\u0000\u0000\u0000\u0000\u0000\u0000\u0000\u0000\u0000\u0000\u0000\u0000\u0000\u0000\u0000\u0000\u0000\u0000\u0000\u0000\u0000\u0000\u0000\u0000\u0000\u0000\u0000\u0000\u0000\u0000\u0000\u0000\u0000\u0000\u0000\u0000\u0000\u0000\u0000\u0000\u0000\u0000\u0000\u0000\u0000\u0000\u0000\u0000\u0000\u0000\u0000\u0000\u0000\u0000\u0000\u0000\u0000\u0000\u0000\u0000\u0000\u0000",
        "\u0000\u0000\u0000\u0000\u0000\u0000\u0000\u0000\u0000\u0000\u0000\u0000\u0000\u0000\u0000\u0000\u0000\u0000\u0000\u0000\u0000\u0000\u0000\u0000\u0000\u0000\u0000\u0000\u0000\u0000\u0000\u0000\u0000\u0000\u0000\u0000\u0000\u0000\u0000\u0000\u0000\u0000\u0000\u0000\u0000\u0000\u0000\u0000\u0000\u0000\u0000\u0000\u0000\u0000\u0000\u0000\u0000\u0000\u0000\u0000\u0000\u0000\u0000\u0000\u0000\u0000\u0000\u0000\u0000\u0000\u0000\u0000\u0000\u0000\u0000\u0000\u0000\u0000\u0000\u0000",
        "\u0000\u0000\u0000\u0000\u0000\u0000\u0000\u0000\u0000\u0000\u0000\u0000\u0000\u0000\u0000\u0000\u0000\u0000\u0000\u0000\u0000\u0000\u0000\u0000\u0000\u0000\u0000\u0000\u0000\u0000\u0000\u0000\u0000\u0000\u0000\u0000\u0000\u0000\u0000\u0000\u0000\u0000\u0000\u0000\u0000\u0000\u0000\u0000\u0000\u0000\u0000\u0000\u0000\u0000\u0000\u0000\u0000\u0000\u0000\u0000\u0000\u0000\u0000\u0000\u0000\u0000\u0000\u0000\u0000\u0000\u0000\u0000\u0000\u0000\u0000\u0000\u0000\u0000",
        "\u0000\u0000\u0000\u0000\u0000\u0000\u0000\u0000\u0000\u0000\u0000\u0000\u0000\u0000\u0000\u0000\u0000\u0000\u0000\u0000\u0000\u0000\u0000\u0000\u0000\u0000\u0000\u0000\u0000\u0000\u0000\u0000\u0000\u0000\u0000\u0000\u0000\u0000\u0000\u0000\u0000\u0000\u0000\u0000\u0000\u0000\u0000\u0000\u0000\u0000\u0000\u0000\u0000\u0000\u0000\u0000\u0000\u0000\u0000\u0000\u0000\u0000\u0000\u0000\u0000\u0000\u0000\u0000\u0000\u0000\u0000\u0000\u0000\u0000\u0000\u0000\u0000\u0000",
        "\u0000\u0000\u0000\u0000\u0000\u0000\u0000\u0000\u0000\u0000\u0000\u0000\u0000\u0000\u0000\u0000\u0000\u0000\u0000\u0000\u0000\u0000\u0000\u0000\u0000\u0000\u0000\u0000\u0000\u0000\u0000\u0000\u0000\u0000\u0000\u0000\u0000\u0000\u0000\u0000\u0000\u0000\u0000\u0000\u0000\u0000\u0000\u0000\u0000\u0000\u0000\u0000\u0000\u0000\u0000\u0000\u0000\u0000\u0000\u0000\u0000\u0000\u0000\u0000\u0000\u0000\u0000\u0000\u0000\u0000\u0000\u0000\u0000\u0000\u0000\u0000\u0000\u0000",
        "\u0000\u0000\u0000\u0000\u0000\u0000\u0000\u0000\u0000\u0000\u0000\u0000\u0000\u0000\u0000\u0000\u0000\u0000\u0000\u0000\u0000\u0000\u0000\u0000\u0000\u0000\u0000\u0000\u0000\u0000\u0000\u0000\u0000\u0000\u0000\u0000\u0000\u0000\u0000\u0000\u0000\u0000\u0000\u0000\u0000\u0000\u0000\u0000\u0000\u0000\u0000\u0000\u0000\u0000\u0000\u0000\u0000\u0000\u0000\u0000\u0000\u0000\u0000\u0000\u0000\u0000\u0000\u0000\u0000\u0000\u0000\u0000\u0000\u0000\u0000\u0000\u0000\u0000",
        "\u0000\u0000\u0000\u0000\u0000\u0000\u0000\u0000\u0000\u0000\u0000\u0000\u0000\u0000\u0000\u0000\u0000\u0000\u0000\u0000\u0000\u0000\u0000\u0000\u0000\u0000\u0000\u0000\u0000\u0000\u0000\u0000\u0000\u0000\u0000\u0000\u0000\u0000\u0000\u0000\u0000\u0000\u0000\u0000\u0000\u0000\u0000\u0000\u0000\u0000\u0000\u0000\u0000\u0000\u0000\u0000\u0000\u0000\u0000\u0000\u0000\u0000\u0000\u0000\u0000\u0000\u0000\u0000\u0000\u0000\u0000\u0000\u0000\u0000\u0000\u0000\u0000\u0000",
        "\u0000\u0000\u0000\u0000\u0000\u0000\u0000\u0000\u0000\u0000\u0000\u0000\u0000\u0000\u0000\u0000\u0000\u0000\u0000\u0000\u0000\u0000\u0000\u0000\u0000\u0000\u0000\u0000\u0000\u0000\u0000\u0000\u0000\u0000\u0000\u0000\u0000\u0000\u0000\u0000\u0000\u0000\u0000\u0000\u0000\u0000\u0000\u0000\u0000\u0000\u0000\u0000\u0000\u0000\u0000\u0000\u0000\u0000\u0000\u0000\u0000\u0000\u0000\u0000\u0000\u0000\u0000\u0000\u0000\u0000\u0000\u0000\u0000\u0000\u0000\u0000\u0000\u0000",
        "\u0000\u0000\u0000\u0000\u0000\u0000\u0000\u0000\u0000\u0000\u0000\u0000\u0000\u0000\u0000\u0000\u0000\u0000\u0000\u0000\u0000\u0000\u0000\u0000\u0000\u0000\u0000\u0000\u0000\u0000\u0000\u0000\u0000\u0000\u0000\u0000\u0000\u0000\u0000\u0000\u0000\u0000\u0000\u0000\u0000\u0000\u0000\u0000\u0000\u0000\u0000\u0000\u0000\u0000\u0000\u0000\u0000\u0000\u0000\u0000\u0000\u0000\u0000\u0000\u0000\u0000\u0000\u0000\u0000\u0000\u0000\u0000\u0000\u0000\u0000\u0000\u0000\u0000",
        "\u0000\u0000\u0000\u0000\u0000\u0000\u0000\u0000\u0000\u0000\u0000\u0000\u0000\u0000\u0000\u0000\u0000\u0000\u0000\u0000\u0000\u0000\u0000\u0000\u0000\u0000\u0000\u0000\u0000\u0000\u0000\u0000\u0000\u0000\u0000\u0000\u0000\u0000\u0000\u0000\u0000\u0000\u0000\u0000\u0000\u0000\u0000\u0000\u0000\u0000\u0000\u0000\u0000\u0000\u0000\u0000\u0000\u0000\u0000\u0000\u0000\u0000\u0000\u0000\u0000\u0000\u0000\u0000\u0000\u0000\u0000\u0000\u0000\u0000\u0000\u0000\u0000\u0000",
        "\u0000\u0000\u0000\u0000\u0000\u0000\u0000\u0000\u0000\u0000\u0000\u0000\u0000\u0000\u0000\u0000\u0000\u0000\u0000\u0000\u0000\u0000\u0000\u0000\u0000\u0000\u0000\u0000\u0000\u0000\u0000\u0000\u0000\u0000\u0000\u0000\u0000\u0000\u0000\u0000\u0000\u0000\u0000\u0000\u0000\u0000\u0000\u0000\u0000\u0000\u0000\u0000\u0000\u0000\u0000\u0000\u0000\u0000\u0000\u0000\u0000\u0000\u0000\u0000\u0000\u0000\u0000\u0000\u0000\u0000\u0000\u0000\u0000\u0000\u0000\u0000\u0000\u0000",
        "\u0000\u0000\u0000\u0000\u0000\u0000\u0000\u0000\u0000\u0000\u0000\u0000\u0000\u0000\u0000\u0000\u0000\u0000\u0000\u0000\u0000\u0000\u0000\u0000\u0000\u0000\u0000\u0000\u0000\u0000\u0000\u0000\u0000\u0000\u0000\u0000\u0000\u0000\u0000\u0000\u0000\u0000\u0000\u0000\u0000\u0000\u0000\u0000\u0000\u0000\u0000\u0000\u0000\u0000\u0000\u0000\u0000\u0000\u0000\u0000\u0000\u0000\u0000\u0000\u0000\u0000\u0000\u0000\u0000\u0000\u0000\u0000\u0000\u0000\u0000\u0000\u0000\u0000",
        "\u0000\u0000\u0000\u0000\u0000\u0000\u0000\u0000\u0000\u0000\u0000\u0000\u0000\u0000\u0000\u0000\u0000\u0000\u0000\u0000\u0000\u0000\u0000\u0000\u0000\u0000\u0000\u0000\u0000\u0000\u0000\u0000\u0000\u0000\u0000\u0000\u0000\u0000\u0000\u0000\u0000\u0000\u0000\u0000\u0000\u0000\u0000\u0000\u0000\u0000\u0000\u0000\u0000\u0000\u0000\u0000\u0000\u0000\u0000\u0000\u0000\u0000\u0000\u0000\u0000\u0000\u0000\u0000\u0000\u0000\u0000\u0000\u0000\u0000\u0000\u0000\u0000\u0000",
        "\u0000\u0000\u0000\u0000\u0000\u0000\u0000\u0000\u0000\u0000\u0000\u0000\u0000\u0000\u0000\u0000\u0000\u0000\u0000\u0000\u0000\u0000\u0000\u0000\u0000\u0000\u0000\u0000\u0000\u0000\u0000\u0000\u0000\u0000\u0000\u0000\u0000\u0000\u0000\u0000\u0000\u0000\u0000\u0000\u0000\u0000\u0000\u0000\u0000\u0000\u0000\u0000\u0000\u0000\u0000\u0000\u0000\u0000\u0000\u0000\u0000\u0000\u0000\u0000\u0000\u0000\u0000\u0000\u0000\u0000\u0000\u0000\u0000\u0000\u0000\u0000\u0000\u0000",
        "\u0000\u0000\u0000\u0000\u0000\u0000\u0000\u0000\u0000\u0000\u0000\u0000\u0000\u0000\u0000\u0000\u0000\u0000\u0000\u0000\u0000\u0000\u0000\u0000\u0000\u0000\u0000\u0000\u0000\u0000\u0000\u0000\u0000\u0000\u0000\u0000\u0000\u0000\u0000\u0000\u0000\u0000\u0000\u0000\u0000\u0000\u0000\u0000\u0000\u0000\u0000\u0000\u0000\u0000\u0000\u0000\u0000\u0000\u0000\u0000\u0000\u0000\u0000\u0000\u0000\u0000\u0000\u0000\u0000\u0000\u0000\u0000\u0000\u0000\u0000\u0000\u0000\u0000",
        "\u0000\u0000\u0000\u0000\u0000\u0000\u0000\u0000\u0000\u0000\u0000\u0000\u0000\u0000\u0000\u0000\u0000\u0000\u0000\u0000\u0000\u0000\u0000\u0000\u0000\u0000\u0000\u0000\u0000\u0000\u0000\u0000\u0000\u0000\u0000\u0000\u0000\u0000\u0000\u0000\u0000\u0000\u0000\u0000\u0000\u0000\u0000\u0000\u0000\u0000\u0000\u0000\u0000\u0000\u0000\u0000\u0000\u0000\u0000\u0000\u0000\u0000\u0000\u0000\u0000\u0000\u0000\u0000\u0000\u0000\u0000\u0000\u0000\u0000\u0000\u0000\u0000\u0000",
        "\u0000\u0000\u0000\u0000\u0000\u0000\u0000\u0000\u0000\u0000\u0000\u0000\u0000\u0000\u0000\u0000\u0000\u0000\u0000\u0000\u0000\u0000\u0000\u0000\u0000\u0000\u0000\u0000\u0000\u0000\u0000\u0000\u0000\u0000\u0000\u0000\u0000\u0000\u0000\u0000\u0000\u0000\u0000\u0000\u0000\u0000\u0000\u0000\u0000\u0000\u0000\u0000\u0000\u0000\u0000\u0000\u0000\u0000\u0000\u0000\u0000\u0000\u0000\u0000\u0000\u0000\u0000\u0000\u0000\u0000\u0000\u0000\u0000\u0000\u0000\u0000\u0000\u0000",
        "\u0000\u0000\u0000\u0000\u0000\u0000\u0000\u0000\u0000\u0000\u0000\u0000\u0000\u0000\u0000\u0000\u0000\u0000\u0000\u0000\u0000\u0000\u0000\u0000\u0000\u0000\u0000\u0000\u0000\u0000\u0000\u0000\u0000\u0000\u0000\u0000\u0000\u0000\u0000\u0000\u0000\u0000\u0000\u0000\u0000\u0000\u0000\u0000\u0000\u0000\u0000\u0000\u0000\u0000\u0000\u0000\u0000\u0000\u0000\u0000\u0000\u0000\u0000\u0000\u0000\u0000\u0000\u0000\u0000\u0000\u0000\u0000\u0000\u0000\u0000\u0000\u0000\u0000",
        "\u0000\u0000\u0000\u0000\u0000\u0000\u0000\u0000\u0000\u0000\u0000\u0000\u0000\u0000\u0000\u0000\u0000\u0000\u0000\u0000\u0000\u0000\u0000\u0000\u0000\u0000\u0000\u0000\u0000\u0000\u0000\u0000\u0000\u0000\u0000\u0000\u0000\u0000\u0000\u0000\u0000\u0000\u0000\u0000\u0000\u0000\u0000\u0000\u0000\u0000\u0000\u0000\u0000\u0000\u0000\u0000\u0000\u0000\u0000\u0000\u0000\u0000\u0000\u0000\u0000\u0000\u0000\u0000\u0000\u0000\u0000\u0000\u0000\u0000\u0000\u0000\u0000\u0000",
        "\u0000\u0000\u0000\u0000\u0000\u0000\u0000\u0000\u0000\u0000\u0000\u0000\u0000\u0000\u0000\u0000\u0000\u0000\u0000\u0000\u0000\u0000\u0000\u0000\u0000\u0000\u0000\u0000\u0000\u0000\u0000\u0000\u0000\u0000\u0000\u0000\u0000\u0000\u0000\u0000\u0000\u0000\u0000\u0000\u0000\u0000\u0000\u0000\u0000\u0000\u0000\u0000\u0000\u0000\u0000\u0000\u0000\u0000\u0000\u0000\u0000\u0000\u0000\u0000\u0000\u0000\u0000\u0000\u0000\u0000\u0000\u0000\u0000\u0000\u0000\u0000\u0000\u0000",
        "\u0000\u0000\u0000\u0000\u0000\u0000\u0000\u0000\u0000\u0000\u0000\u0000\u0000\u0000\u0000\u0000\u0000\u0000\u0000\u0000\u0000\u0000\u0000\u0000\u0000\u0000\u0000\u0000\u0000\u0000\u0000\u0000\u0000\u0000\u0000\u0000\u0000\u0000\u0000\u0000\u0000\u0000\u0000\u0000\u0000\u0000\u0000\u0000\u0000\u0000\u0000\u0000\u0000\u0000\u0000\u0000\u0000\u0000\u0000\u0000\u0000\u0000\u0000\u0000\u0000\u0000\u0000\u0000\u0000\u0000\u0000\u0000\u0000\u0000\u0000\u0000\u0000\u0000",
