{
  "AcquisitionMatrixPE": 70,
  "AcquisitionNumber": 1,
  "AcquisitionTime": "13:18:56.950000",
  "BandwidthPerPixelPhaseEncode": 51.948,
  "BaseResolution": 70,
  "BodyPartExamined": "HEAD",
  "CoilCombinationMethod": "Sum of Squares",
  "ConsistencyInfo": "N4_VE11C_LATEST_20160120",
  "ConversionSoftware": "dcm2niix",
  "ConversionSoftwareVersion": "v1.0.20220720",
  "DerivedVendorReportedEchoSpacing": 0.000550001,
  "DeviceSerialNumber": "66061",
  "DwellTime": 3.3e-06,
  "EchoTime": 0.022,
  "EchoTrainLength": 35,
  "EffectiveEchoSpacing": 0.000275,
  "FlipAngle": 90,
  "HeudiconvVersion": "1.1.1",
  "ImageOrientationPatientDICOM": [0.999711, 0.00561981, 0.0233804, -0.00122141, 0.982919, -0.184033],
  "ImageOrientationText": "Tra>Cor(-10.6)>Sag(1.4)",
  "ImageType": [
    "ORIGINAL",
    "PRIMARY",
    "M",
    "ND",
    "NORM",
    "MOSAIC"
],
  "ImagingFrequency": 123.254,
  "InPlanePhaseEncodingDirectionDICOM": "COL",
  "InstitutionAddress": "Street StreetNo,City/1c4204/,District,KR,ZIP",
  "InstitutionName": "SKKU",
  "InstitutionalDepartmentName": "Department",
  "MRAcquisitionType": "2D",
  "MagneticFieldStrength": 3,
  "Manufacturer": "Siemens",
  "ManufacturersModelName": "Prisma",
  "MatrixCoilMode": "GRAPPA",
  "Modality": "MR",
  "NonlinearGradientCorrection": false,
  "ParallelReductionFactorInPlane": 2,
  "PartialFourier": 1,
  "PatientPosition": "HFS",
  "PercentPhaseFOV": 100,
  "PercentSampling": 100,
  "PhaseEncodingDirection": "j-",
  "PhaseEncodingSteps": 70,
  "PhaseResolution": 1,
  "PixelBandwidth": 2165,
  "ProcedureStepDescription": "Head^PI:Others",
  "ProtocolName": "BOLD_ep2d_3x3x3_dimension2",
  "PulseSequenceDetails": "%SiemensSeq%\\ep2d_pace",
  "ReceiveCoilActiveElements": "HC1-7",
  "ReceiveCoilName": "HeadNeck_64",
  "ReconMatrixPE": 70,
  "RefLinesPE": 24,
  "RepetitionTime": 2,
  "SAR": 0.13056,
  "ScanOptions": "FS",
  "ScanningSequence": "EP",
  "SequenceName": "*epfid2d1_70",
  "SequenceVariant": "SK",
  "SeriesDescription": "BOLD_ep2d_3x3x3_dimension2",
  "SeriesNumber": 5,
  "ShimSetting": [5044, 3739, 4445, 406, -45, -111, -7, 41],
  "SliceThickness": 3,
  "SliceTiming": [0.99, 0, 1.0375, 0.0475, 1.0825, 0.0925, 1.13, 0.14, 1.1775, 0.1875, 1.225, 0.235, 1.2725, 0.2825, 1.32, 0.33, 1.3675, 0.3775, 1.4125, 0.4225, 1.46, 0.47, 1.5075, 0.5175, 1.555, 0.565, 1.6025, 0.6125, 1.65, 0.66, 1.6975, 0.7075, 1.7425, 0.7525, 1.79, 0.8, 1.8375, 0.8475, 1.885, 0.895, 1.9325, 0.9425],
  "SoftwareVersions": "syngo MR E11",
  "SpacingBetweenSlices": 3,
  "StationName": "AWP66061",
  "TaskName": "dimension",
  "TotalReadoutTime": 0.018975,
  "TxRefAmp": 242.324,
  "dcmmeta_affine": [
    [-2.9991326332092285, -0.003664234420284629, 0.07204576581716537, 110.86479949951172],
    [-0.01685943827033043, 2.9487578868865967, -0.5518540740013123, -88.34886932373047],
    [0.07014112919569016, 0.552099347114563, 2.9479258060455322, -55.078094482421875],
    [0.0, 0.0, 0.0, 1.0]
],
  "dcmmeta_reorient_transform": [
    [0.0, -1.0, 0.0, 69.0],
    [1.0, 0.0, 0.0, 0.0],
    [0.0, 0.0, -1.0, 41.0],
    [0.0, 0.0, 0.0, 1.0]
],
  "dcmmeta_shape": [70, 70, 42, 437],
  "dcmmeta_slice_dim": 2,
  "dcmmeta_version": 0.6,
  "global": {
    "const": {
      "AcquisitionMatrix": [70, 0, 0, 70],
      "AngioFlag": "N",
      "BitsAllocated": 16,
      "BitsStored": 12,
      "BodyPartExamined": "HEAD",
      "Columns": 490,
      "EchoNumbers": 1,
      "EchoTime": 22.0,
      "EchoTrainLength": 35,
      "FlipAngle": 90.0,
      "HighBit": 11,
      "ImageOrientationPatient": [0.99971084602338, 0.00561981250013, 0.02338037747109, -0.0012214114451, 0.98291928404161, -0.1840331198812],
      "ImagePositionPatient": [-742.61418643381, -715.26903838738, 205.09294926518],
      "ImageType": [
        "ORIGINAL",
        "PRIMARY",
        "M",
        "ND",
        "NORM",
        "MOSAIC"
],
      "ImagedNucleus": "1H",
      "ImagingFrequency": 123.254453,
      "InPlanePhaseEncodingDirection": "COL",
      "MRAcquisitionType": "2D",
      "MagneticFieldStrength": 3.0,
      "Manufacturer": "SIEMENS",
      "ManufacturerModelName": "Prisma",
      "Modality": "MR",
      "NumberOfAverages": 1.0,
      "NumberOfPhaseEncodingSteps": 70,
      "PercentPhaseFieldOfView": 100.0,
      "PercentSampling": 100.0,
      "PerformedProcedureStepStartTime": "125747.760000",
      "PhotometricInterpretation": "MONOCHROME2",
      "PixelBandwidth": 2165.0,
      "PixelRepresentation": 0,
      "PixelSpacing": [3.0, 3.0],
      "ProtocolName": "BOLD_ep2d_3x3x3_dimension2",
      "RepetitionTime": 2000.0,
      "Rows": 490,
      "SAR": 0.13056036707665,
      "SamplesPerPixel": 1,
      "ScanOptions": "FS",
      "ScanningSequence": "EP",
      "SequenceName": "*epfid2d1_70",
      "SequenceVariant": "SK",
      "SeriesDescription": "BOLD_ep2d_3x3x3_dimension2",
      "SeriesNumber": 5,
      "SeriesTime": "131859.068000",
      "SliceLocation": 87.792297123941,
      "SliceThickness": 3.0,
      "SmallestImagePixelValue": 0,
      "SoftwareVersions": "syngo MR E11",
      "SpacingBetweenSlices": 3.0000000448986,
      "SpecificCharacterSet": "ISO_IR 100",
      "StudyID": "1",
      "StudyTime": "125747.685000",
      "TransmitCoilName": "Body",
      "VariableFlipAngleFlag": "N",
      "WindowCenterWidthExplanation": "Algo1",
      "dBdt": 0.0},
    "slices": {}
  },
  "time": {
    "samples": {
      "AcquisitionNumber": [1, 2, 3, 4, 5, 6, 7, 8, 9, 10, 11, 12, 13, 14, 15, 16, 17, 18, 19, 20, 21, 22, 23, 24, 25, 26, 27, 28, 29, 30, 31, 32, 33, 34, 35, 36, 37, 38, 39, 40, 41, 42, 43, 44, 45, 46, 47, 48, 49, 50, 51, 52, 53, 54, 55, 56, 57, 58, 59, 60, 61, 62, 63, 64, 65, 66, 67, 68, 69, 70, 71, 72, 73, 74, 75, 76, 77, 78, 79, 80, 81, 82, 83, 84, 85, 86, 87, 88, 89, 90, 91, 92, 93, 94, 95, 96, 97, 98, 99, 100, 101, 102, 103, 104, 105, 106, 107, 108, 109, 110, 111, 112, 113, 114, 115, 116, 117, 118, 119, 120, 121, 122, 123, 124, 125, 126, 127, 128, 129, 130, 131, 132, 133, 134, 135, 136, 137, 138, 139, 140, 141, 142, 143, 144, 145, 146, 147, 148, 149, 150, 151, 152, 153, 154, 155, 156, 157, 158, 159, 160, 161, 162, 163, 164, 165, 166, 167, 168, 169, 170, 171, 172, 173, 174, 175, 176, 177, 178, 179, 180, 181, 182, 183, 184, 185, 186, 187, 188, 189, 190, 191, 192, 193, 194, 195, 196, 197, 198, 199, 200, 201, 202, 203, 204, 205, 206, 207, 208, 209, 210, 211, 212, 213, 214, 215, 216, 217, 218, 219, 220, 221, 222, 223, 224, 225, 226, 227, 228, 229, 230, 231, 232, 233, 234, 235, 236, 237, 238, 239, 240, 241, 242, 243, 244, 245, 246, 247, 248, 249, 250, 251, 252, 253, 254, 255, 256, 257, 258, 259, 260, 261, 262, 263, 264, 265, 266, 267, 268, 269, 270, 271, 272, 273, 274, 275, 276, 277, 278, 279, 280, 281, 282, 283, 284, 285, 286, 287, 288, 289, 290, 291, 292, 293, 294, 295, 296, 297, 298, 299, 300, 301, 302, 303, 304, 305, 306, 307, 308, 309, 310, 311, 312, 313, 314, 315, 316, 317, 318, 319, 320, 321, 322, 323, 324, 325, 326, 327, 328, 329, 330, 331, 332, 333, 334, 335, 336, 337, 338, 339, 340, 341, 342, 343, 344, 345, 346, 347, 348, 349, 350, 351, 352, 353, 354, 355, 356, 357, 358, 359, 360, 361, 362, 363, 364, 365, 366, 367, 368, 369, 370, 371, 372, 373, 374, 375, 376, 377, 378, 379, 380, 381, 382, 383, 384, 385, 386, 387, 388, 389, 390, 391, 392, 393, 394, 395, 396, 397, 398, 399, 400, 401, 402, 403, 404, 405, 406, 407, 408, 409, 410, 411, 412, 413, 414, 415, 416, 417, 418, 419, 420, 421, 422, 423, 424, 425, 426, 427, 428, 429, 430, 431, 432, 433, 434, 435, 436, 437],
      "AcquisitionTime": ["131856.950000", "131858.950000", "131900.950000", "131902.950000", "131904.950000", "131906.950000", "131908.950000", "131910.950000", "131912.950000", "131914.950000", "131916.950000", "131918.950000", "131920.950000", "131922.950000", "131924.950000", "131926.950000", "131928.950000", "131930.950000", "131932.950000", "131934.950000", "131936.950000", "131938.950000", "131940.950000", "131942.950000", "131944.950000", "131946.950000", "131948.950000", "131950.950000", "131952.950000", "131954.950000", "131956.950000", "131958.950000", "132000.950000", "132002.950000", "132004.950000", "132006.950000", "132008.950000", "132010.950000", "132012.950000", "132014.950000", "132016.950000", "132018.950000", "132020.950000", "132022.950000", "132024.950000", "132026.950000", "132028.950000", "132030.950000", "132032.950000", "132034.950000", "132036.950000", "132038.950000", "132040.950000", "132042.950000", "132044.950000", "132046.950000", "132048.950000", "132050.950000", "132052.950000", "132054.950000", "132056.950000", "132058.950000", "132100.950000", "132102.950000", "132104.950000", "132106.950000", "132108.950000", "132110.950000", "132112.950000", "132114.950000", "132116.950000", "132118.950000", "132120.950000", "132122.950000", "132124.950000", "132126.950000", "132128.950000", "132130.950000", "132132.950000", "132134.950000", "132136.950000", "132138.950000", "132140.950000", "132142.950000", "132144.950000", "132146.950000", "132148.950000", "132150.950000", "132152.950000", "132154.950000", "132156.950000", "132158.950000", "132200.950000", "132202.950000", "132204.950000", "132206.950000", "132208.950000", "132210.950000", "132212.950000", "132214.950000", "132216.950000", "132218.950000", "132220.950000", "132222.950000", "132224.950000", "132226.950000", "132228.950000", "132230.950000", "132232.950000", "132234.950000", "132236.950000", "132238.950000", "132240.950000", "132242.950000", "132244.950000", "132246.950000", "132248.950000", "132250.950000", "132252.950000", "132254.950000", "132256.950000", "132258.950000", "132300.950000", "132302.950000", "132304.950000", "132306.950000", "132308.950000", "132310.950000", "132312.950000", "132314.950000", "132316.950000", "132318.950000", "132320.950000", "132322.950000", "132324.950000", "132326.950000", "132328.950000", "132330.950000", "132332.950000", "132334.950000", "132336.950000", "132338.950000", "132340.950000", "132342.950000", "132344.950000", "132346.950000", "132348.950000", "132350.950000", "132352.950000", "132354.950000", "132356.950000", "132358.950000", "132400.950000", "132402.950000", "132404.950000", "132406.950000", "132408.950000", "132410.950000", "132412.950000", "132414.950000", "132416.950000", "132418.950000", "132420.950000", "132422.950000", "132424.950000", "132426.950000", "132428.950000", "132430.950000", "132432.950000", "132434.950000", "132436.950000", "132438.950000", "132440.950000", "132442.950000", "132444.950000", "132446.950000", "132448.950000", "132450.950000", "132452.950000", "132454.950000", "132456.950000", "132458.950000", "132500.950000", "132502.950000", "132504.950000", "132506.950000", "132508.950000", "132510.950000", "132512.950000", "132514.950000", "132516.950000", "132518.950000", "132520.950000", "132522.950000", "132524.950000", "132526.950000", "132528.950000", "132530.950000", "132532.950000", "132534.950000", "132536.950000", "132538.950000", "132540.950000", "132542.950000", "132544.950000", "132546.950000", "132548.950000", "132550.950000", "132552.950000", "132554.950000", "132556.950000", "132558.950000", "132600.950000", "132602.950000", "132604.950000", "132606.950000", "132608.950000", "132610.950000", "132612.950000", "132614.950000", "132616.950000", "132618.950000", "132620.950000", "132622.950000", "132624.950000", "132626.950000", "132628.950000", "132630.950000", "132632.950000", "132634.950000", "132636.950000", "132638.950000", "132640.950000", "132642.950000", "132644.950000", "132646.950000", "132648.950000", "132650.950000", "132652.950000", "132654.950000", "132656.950000", "132658.950000", "132700.950000", "132702.950000", "132704.950000", "132706.950000", "132708.950000", "132710.950000", "132712.950000", "132714.950000", "132716.950000", "132718.950000", "132720.950000", "132722.950000", "132724.950000", "132726.950000", "132728.950000", "132730.950000", "132732.950000", "132734.950000", "132736.950000", "132738.950000", "132740.950000", "132742.950000", "132744.950000", "132746.950000", "132748.950000", "132750.950000", "132752.950000", "132754.950000", "132756.950000", "132758.950000", "132800.950000", "132802.950000", "132804.950000", "132806.950000", "132808.950000", "132810.950000", "132812.950000", "132814.950000", "132816.950000", "132818.950000", "132820.950000", "132822.950000", "132824.950000", "132826.950000", "132828.950000", "132830.950000", "132832.950000", "132834.950000", "132836.950000", "132838.950000", "132840.950000", "132842.950000", "132844.950000", "132846.950000", "132848.950000", "132850.950000", "132852.950000", "132854.950000", "132856.950000", "132858.950000", "132900.950000", "132902.950000", "132904.950000", "132906.950000", "132908.950000", "132910.950000", "132912.950000", "132914.950000", "132916.950000", "132918.950000", "132920.950000", "132922.950000", "132924.950000", "132926.950000", "132928.950000", "132930.950000", "132932.950000", "132934.950000", "132936.950000", "132938.950000", "132940.950000", "132942.950000", "132944.950000", "132946.950000", "132948.950000", "132950.950000", "132952.950000", "132954.950000", "132956.950000", "132958.950000", "133000.950000", "133002.950000", "133004.950000", "133006.950000", "133008.950000", "133010.950000", "133012.950000", "133014.950000", "133016.950000", "133018.950000", "133020.950000", "133022.950000", "133024.950000", "133026.950000", "133028.950000", "133030.950000", "133032.950000", "133034.950000", "133036.950000", "133038.950000", "133040.950000", "133042.950000", "133044.950000", "133046.950000", "133048.950000", "133050.950000", "133052.950000", "133054.950000", "133056.950000", "133058.950000", "133100.950000", "133102.950000", "133104.950000", "133106.950000", "133108.950000", "133110.950000", "133112.950000", "133114.950000", "133116.950000", "133118.950000", "133120.950000", "133122.950000", "133124.950000", "133126.950000", "133128.950000", "133130.950000", "133132.950000", "133134.950000", "133136.950000", "133138.950000", "133140.950000", "133142.950000", "133144.950000", "133146.950000", "133148.950000", "133150.950000", "133152.950000", "133154.950000", "133156.950000", "133158.950000", "133200.950000", "133202.950000", "133204.950000", "133206.950000", "133208.950000", "133210.950000", "133212.950000", "133214.950000", "133216.950000", "133218.950000", "133220.950000", "133222.950000", "133224.950000", "133226.950000", "133228.950000", "133230.950000", "133232.950000", "133234.950000", "133236.950000", "133238.950000", "133240.950000", "133242.950000", "133244.950000", "133246.950000", "133248.950000", "133250.950000", "133252.950000", "133254.950000", "133256.950000", "133258.950000", "133300.950000", "133302.950000", "133304.950000", "133306.950000", "133308.950000", "133310.950000", "133312.950000", "133314.950000", "133316.950000", "133318.950000", "133320.950000", "133322.950000", "133324.950000", "133326.950000", "133328.950000"],
      "ContentTime": ["131859.081000", "131901.067000", "131903.068000", "131905.068000", "131907.068000", "131909.067000", "131911.067000", "131913.067000", "131915.066000", "131917.067000", "131919.067000", "131921.071000", "131923.068000", "131925.068000", "131927.067000", "131929.066000", "131931.067000", "131933.066000", "131935.068000", "131937.068000", "131939.068000", "131941.068000", "131943.067000", "131945.067000", "131947.067000", "131949.067000", "131951.067000", "131953.068000", "131955.068000", "131957.068000", "131959.068000", "132001.067000", "132003.067000", "132005.067000", "132007.067000", "132009.067000", "132011.068000", "132013.068000", "132015.068000", "132017.068000", "132019.067000", "132021.067000", "132023.067000", "132025.067000", "132027.067000", "132029.068000", "132031.068000", "132033.068000", "132035.081000", "132037.067000", "132039.067000", "132041.067000", "132043.067000", "132045.068000", "132047.068000", "132049.068000", "132051.068000", "132053.067000", "132055.067000", "132057.067000", "132059.067000", "132101.066000", "132103.068000", "132105.068000", "132107.068000", "132109.068000", "132111.067000", "132113.067000", "132115.067000", "132117.067000", "132119.067000", "132121.068000", "132123.068000", "132125.068000", "132127.068000", "132129.067000", "132131.067000", "132133.067000", "132135.067000", "132137.068000", "132139.068000", "132141.068000", "132143.068000", "132145.068000", "132147.067000", "132149.067000", "132151.068000", "132153.067000", "132155.068000", "132157.068000", "132159.068000", "132201.068000", "132203.067000", "132205.067000", "132207.067000", "132209.067000", "132211.067000", "132213.068000", "132215.068000", "132217.068000", "132219.068000", "132221.067000", "132223.067000", "132225.067000", "132227.067000", "132229.067000", "132231.068000", "132233.068000", "132235.068000", "132237.068000", "132239.067000", "132241.067000", "132243.067000", "132245.067000", "132247.068000", "132249.068000", "132251.068000", "132253.068000", "132255.068000", "132257.067000", "132259.067000", "132301.067000", "132303.067000", "132305.068000", "132307.068000", "132309.068000", "132311.068000", "132313.067000", "132315.067000", "132317.067000", "132319.067000", "132321.067000", "132323.068000", "132325.068000", "132327.068000", "132329.068000", "132331.067000", "132333.067000", "132335.067000", "132337.067000", "132339.067000", "132341.068000", "132343.068000", "132345.068000", "132347.068000", "132349.067000", "132351.067000", "132353.067000", "132355.067000", "132357.068000", "132359.068000", "132401.068000", "132403.068000", "132405.068000", "132407.067000", "132409.067000", "132411.067000", "132413.067000", "132415.068000", "132417.068000", "132419.068000", "132421.070000", "132423.067000", "132425.067000", "132427.067000", "132429.067000", "132431.067000", "132433.068000", "132435.068000", "132437.068000", "132439.068000", "132441.067000", "132443.067000", "132445.067000", "132447.067000", "132449.067000", "132451.068000", "132453.068000", "132455.068000", "132457.068000", "132459.067000", "132501.067000", "132503.067000", "132505.067000", "132507.068000", "132509.068000", "132511.068000", "132513.068000", "132515.068000", "132517.067000", "132519.067000", "132521.067000", "132523.067000", "132525.068000", "132527.068000", "132529.068000", "132531.068000", "132533.067000", "132535.067000", "132537.067000", "132539.067000", "132541.067000", "132543.068000", "132545.068000", "132547.068000", "132549.068000", "132551.067000", "132553.067000", "132555.067000", "132557.067000", "132559.067000", "132601.068000", "132603.068000", "132605.068000", "132607.068000", "132609.067000", "132611.067000", "132613.067000", "132615.067000", "132617.068000", "132619.068000", "132621.068000", "132623.068000", "132625.068000", "132627.067000", "132629.067000", "132631.067000", "132633.067000", "132635.068000", "132637.068000", "132639.068000", "132641.068000", "132643.067000", "132645.067000", "132647.067000", "132649.067000", "132651.070000", "132653.068000", "132655.068000", "132657.068000", "132659.068000", "132701.067000", "132703.067000", "132705.067000", "132707.067000", "132709.067000", "132711.068000", "132713.068000", "132715.068000", "132717.068000", "132719.067000", "132721.067000", "132723.067000", "132725.067000", "132727.068000", "132729.068000", "132731.068000", "132733.068000", "132735.067000", "132737.067000", "132739.067000", "132741.067000", "132743.067000", "132745.068000", "132747.068000", "132749.068000", "132751.068000", "132753.067000", "132755.067000", "132757.067000", "132759.067000", "132801.067000", "132803.068000", "132805.068000", "132807.068000", "132809.068000", "132811.067000", "132813.067000", "132815.067000", "132817.067000", "132819.070000", "132821.068000", "132823.068000", "132825.068000", "132827.068000", "132829.067000", "132831.067000", "132833.067000", "132835.067000", "132837.068000", "132839.068000", "132841.068000", "132843.083000", "132845.067000", "132847.067000", "132849.067000", "132851.067000", "132853.067000", "132855.068000", "132857.068000", "132859.068000", "132901.068000", "132903.067000", "132905.067000", "132907.067000", "132909.067000", "132911.067000", "132913.068000", "132915.068000", "132917.068000", "132919.068000", "132921.067000", "132923.067000", "132925.067000", "132927.067000", "132929.067000", "132931.068000", "132933.068000", "132935.068000", "132937.068000", "132939.067000", "132941.067000", "132943.067000", "132945.067000", "132947.068000", "132949.068000", "132951.068000", "132953.068000", "132955.067000", "132957.067000", "132959.067000", "133001.067000", "133003.067000", "133005.068000", "133007.068000", "133009.068000", "133011.068000", "133013.067000", "133015.067000", "133017.067000", "133019.067000", "133021.067000", "133023.068000", "133025.068000", "133027.068000", "133029.068000", "133031.067000", "133033.067000", "133035.067000", "133037.067000", "133039.068000", "133041.068000", "133043.068000", "133045.068000", "133047.068000", "133049.067000", "133051.067000", "133053.067000", "133055.067000", "133057.068000", "133059.068000", "133101.068000", "133103.068000", "133105.067000", "133107.067000", "133109.067000", "133111.067000", "133113.067000", "133115.068000", "133117.068000", "133119.068000", "133121.068000", "133123.067000", "133125.067000", "133127.067000", "133129.067000", "133131.067000", "133133.068000", "133135.068000", "133137.068000", "133139.068000", "133141.067000", "133143.067000", "133145.067000", "133147.067000", "133149.068000", "133151.068000", "133153.068000", "133155.068000", "133157.068000", "133159.067000", "133201.067000", "133203.067000", "133205.067000", "133207.068000", "133209.068000", "133211.068000", "133213.068000", "133215.067000", "133217.067000", "133219.067000", "133221.067000", "133223.067000", "133225.068000", "133227.068000", "133229.068000", "133231.068000", "133233.067000", "133235.067000", "133237.067000", "133239.067000", "133241.067000", "133243.068000", "133245.068000", "133247.068000", "133249.068000", "133251.067000", "133253.067000", "133255.067000", "133257.067000", "133259.068000", "133301.068000", "133303.068000", "133305.068000", "133307.068000", "133309.067000", "133311.067000", "133313.067000", "133315.067000", "133317.068000", "133319.088000", "133321.068000", "133323.068000", "133325.067000", "133327.067000", "133329.067000", "133330.743000"],
      "DataSetTrailingPadding": [
        "\u0000\u0000\u0000\u0000\u0000\u0000\u0000\u0000\u0000\u0000\u0000\u0000\u0000\u0000\u0000\u0000\u0000\u0000\u0000\u0000\u0000\u0000\u0000\u0000\u0000\u0000\u0000\u0000\u0000\u0000\u0000\u0000\u0000\u0000\u0000\u0000\u0000\u0000\u0000\u0000\u0000\u0000\u0000\u0000\u0000\u0000\u0000\u0000\u0000\u0000\u0000\u0000\u0000\u0000\u0000\u0000\u0000\u0000\u0000\u0000\u0000\u0000\u0000\u0000\u0000\u0000\u0000\u0000\u0000\u0000\u0000\u0000\u0000\u0000\u0000\u0000\u0000\u0000\u0000\u0000\u0000\u0000\u0000\u0000\u0000\u0000\u0000\u0000\u0000\u0000\u0000\u0000\u0000\u0000\u0000\u0000\u0000\u0000\u0000\u0000\u0000\u0000\u0000\u0000\u0000\u0000\u0000\u0000\u0000\u0000\u0000\u0000\u0000\u0000\u0000\u0000\u0000\u0000\u0000\u0000\u0000\u0000\u0000\u0000\u0000\u0000\u0000\u0000\u0000\u0000\u0000\u0000\u0000\u0000\u0000\u0000\u0000\u0000\u0000\u0000\u0000\u0000\u0000\u0000\u0000\u0000\u0000\u0000\u0000\u0000\u0000\u0000\u0000\u0000\u0000\u0000\u0000\u0000\u0000\u0000\u0000\u0000\u0000\u0000\u0000\u0000\u0000\u0000\u0000\u0000\u0000\u0000\u0000\u0000\u0000\u0000\u0000\u0000\u0000\u0000\u0000\u0000\u0000\u0000\u0000\u0000\u0000\u0000\u0000\u0000\u0000\u0000\u0000\u0000\u0000\u0000\u0000\u0000\u0000\u0000\u0000\u0000\u0000\u0000\u0000\u0000\u0000\u0000\u0000\u0000\u0000\u0000\u0000\u0000\u0000\u0000\u0000\u0000\u0000\u0000\u0000\u0000\u0000\u0000\u0000\u0000\u0000\u0000\u0000\u0000\u0000\u0000\u0000\u0000\u0000\u0000\u0000\u0000\u0000\u0000\u0000\u0000\u0000\u0000\u0000\u0000\u0000\u0000\u0000\u0000\u0000\u0000\u0000\u0000\u0000\u0000\u0000\u0000\u0000\u0000\u0000\u0000\u0000\u0000\u0000\u0000\u0000\u0000\u0000\u0000\u0000\u0000\u0000\u0000\u0000\u0000\u0000\u0000\u0000\u0000\u0000\u0000\u0000\u0000\u0000\u0000\u0000\u0000\u0000\u0000\u0000\u0000\u0000\u0000\u0000\u0000\u0000\u0000\u0000\u0000\u0000\u0000",
        "\u0000\u0000\u0000\u0000\u0000\u0000\u0000\u0000\u0000\u0000\u0000\u0000\u0000\u0000\u0000\u0000\u0000\u0000\u0000\u0000\u0000\u0000\u0000\u0000\u0000\u0000\u0000\u0000\u0000\u0000\u0000\u0000\u0000\u0000\u0000\u0000\u0000\u0000\u0000\u0000\u0000\u0000\u0000\u0000\u0000\u0000\u0000\u0000\u0000\u0000\u0000\u0000\u0000\u0000\u0000\u0000\u0000\u0000\u0000\u0000\u0000\u0000\u0000\u0000\u0000\u0000\u0000\u0000\u0000\u0000\u0000\u0000\u0000\u0000\u0000\u0000\u0000\u0000\u0000\u0000\u0000\u0000\u0000\u0000\u0000\u0000\u0000\u0000\u0000\u0000\u0000\u0000\u0000\u0000\u0000\u0000\u0000\u0000\u0000\u0000\u0000\u0000\u0000\u0000\u0000\u0000\u0000\u0000\u0000\u0000\u0000\u0000\u0000\u0000\u0000\u0000\u0000\u0000\u0000\u0000\u0000\u0000\u0000\u0000\u0000\u0000\u0000\u0000\u0000\u0000\u0000\u0000\u0000\u0000\u0000\u0000\u0000\u0000\u0000\u0000\u0000\u0000\u0000\u0000\u0000\u0000\u0000\u0000\u0000\u0000\u0000\u0000\u0000\u0000\u0000\u0000\u0000\u0000\u0000\u0000\u0000\u0000\u0000\u0000\u0000\u0000\u0000\u0000\u0000\u0000\u0000\u0000\u0000\u0000\u0000\u0000\u0000\u0000\u0000\u0000\u0000\u0000\u0000\u0000\u0000\u0000\u0000\u0000\u0000\u0000\u0000\u0000\u0000\u0000\u0000\u0000\u0000\u0000\u0000\u0000\u0000\u0000\u0000\u0000\u0000\u0000\u0000\u0000\u0000\u0000\u0000\u0000\u0000\u0000\u0000\u0000\u0000\u0000\u0000\u0000\u0000\u0000\u0000\u0000\u0000\u0000\u0000\u0000\u0000\u0000\u0000\u0000\u0000\u0000\u0000\u0000\u0000\u0000\u0000\u0000\u0000\u0000\u0000\u0000\u0000\u0000\u0000\u0000\u0000\u0000\u0000\u0000\u0000\u0000\u0000\u0000\u0000\u0000\u0000\u0000\u0000\u0000\u0000\u0000\u0000\u0000\u0000\u0000\u0000\u0000\u0000\u0000\u0000\u0000\u0000\u0000\u0000\u0000\u0000\u0000\u0000\u0000\u0000\u0000\u0000\u0000\u0000\u0000\u0000\u0000\u0000\u0000\u0000\u0000\u0000\u0000\u0000\u0000\u0000\u0000",
        "\u0000\u0000\u0000\u0000\u0000\u0000\u0000\u0000\u0000\u0000\u0000\u0000\u0000\u0000\u0000\u0000\u0000\u0000\u0000\u0000\u0000\u0000\u0000\u0000\u0000\u0000\u0000\u0000\u0000\u0000\u0000\u0000\u0000\u0000\u0000\u0000\u0000\u0000\u0000\u0000\u0000\u0000\u0000\u0000\u0000\u0000\u0000\u0000\u0000\u0000\u0000\u0000\u0000\u0000\u0000\u0000\u0000\u0000\u0000\u0000\u0000\u0000\u0000\u0000\u0000\u0000\u0000\u0000\u0000\u0000\u0000\u0000\u0000\u0000\u0000\u0000\u0000\u0000\u0000\u0000\u0000\u0000\u0000\u0000\u0000\u0000\u0000\u0000\u0000\u0000\u0000\u0000\u0000\u0000\u0000\u0000\u0000\u0000\u0000\u0000\u0000\u0000\u0000\u0000\u0000\u0000\u0000\u0000\u0000\u0000\u0000\u0000\u0000\u0000\u0000\u0000\u0000\u0000\u0000\u0000\u0000\u0000\u0000\u0000\u0000\u0000\u0000\u0000\u0000\u0000\u0000\u0000\u0000\u0000\u0000\u0000\u0000\u0000\u0000\u0000\u0000\u0000\u0000\u0000\u0000\u0000\u0000\u0000\u0000\u0000\u0000\u0000\u0000\u0000\u0000\u0000\u0000\u0000\u0000\u0000\u0000\u0000\u0000\u0000\u0000\u0000\u0000\u0000\u0000\u0000\u0000\u0000\u0000\u0000\u0000\u0000\u0000\u0000\u0000\u0000\u0000\u0000\u0000\u0000\u0000\u0000\u0000\u0000\u0000\u0000\u0000\u0000\u0000\u0000\u0000\u0000\u0000\u0000\u0000\u0000\u0000\u0000\u0000\u0000\u0000\u0000\u0000\u0000\u0000\u0000\u0000\u0000\u0000\u0000\u0000\u0000\u0000\u0000\u0000\u0000\u0000\u0000\u0000\u0000\u0000\u0000\u0000\u0000\u0000\u0000\u0000\u0000\u0000\u0000\u0000\u0000\u0000\u0000\u0000\u0000\u0000\u0000\u0000\u0000\u0000\u0000\u0000\u0000\u0000\u0000\u0000\u0000\u0000\u0000\u0000\u0000\u0000\u0000\u0000\u0000\u0000\u0000\u0000\u0000\u0000\u0000\u0000\u0000\u0000\u0000\u0000\u0000\u0000\u0000\u0000\u0000\u0000\u0000\u0000\u0000\u0000\u0000\u0000\u0000\u0000\u0000\u0000\u0000\u0000\u0000\u0000\u0000\u0000\u0000\u0000\u0000\u0000\u0000\u0000\u0000",
        "\u0000\u0000\u0000\u0000\u0000\u0000\u0000\u0000\u0000\u0000\u0000\u0000\u0000\u0000\u0000\u0000\u0000\u0000\u0000\u0000\u0000\u0000\u0000\u0000\u0000\u0000\u0000\u0000\u0000\u0000\u0000\u0000\u0000\u0000\u0000\u0000\u0000\u0000\u0000\u0000\u0000\u0000\u0000\u0000\u0000\u0000\u0000\u0000\u0000\u0000\u0000\u0000\u0000\u0000\u0000\u0000\u0000\u0000\u0000\u0000\u0000\u0000\u0000\u0000\u0000\u0000\u0000\u0000\u0000\u0000\u0000\u0000\u0000\u0000\u0000\u0000\u0000\u0000\u0000\u0000\u0000\u0000\u0000\u0000\u0000\u0000\u0000\u0000\u0000\u0000\u0000\u0000\u0000\u0000\u0000\u0000\u0000\u0000\u0000\u0000\u0000\u0000\u0000\u0000\u0000\u0000\u0000\u0000\u0000\u0000\u0000\u0000\u0000\u0000\u0000\u0000\u0000\u0000\u0000\u0000\u0000\u0000\u0000\u0000\u0000\u0000\u0000\u0000\u0000\u0000\u0000\u0000\u0000\u0000\u0000\u0000\u0000\u0000\u0000\u0000\u0000\u0000\u0000\u0000\u0000\u0000\u0000\u0000\u0000\u0000\u0000\u0000\u0000\u0000\u0000\u0000\u0000\u0000\u0000\u0000\u0000\u0000\u0000\u0000\u0000\u0000\u0000\u0000\u0000\u0000\u0000\u0000\u0000\u0000\u0000\u0000\u0000\u0000\u0000\u0000\u0000\u0000\u0000\u0000\u0000\u0000\u0000\u0000\u0000\u0000\u0000\u0000\u0000\u0000\u0000\u0000\u0000\u0000\u0000\u0000\u0000\u0000\u0000\u0000\u0000\u0000\u0000\u0000\u0000\u0000\u0000\u0000\u0000\u0000\u0000\u0000\u0000\u0000\u0000\u0000\u0000\u0000\u0000\u0000\u0000\u0000\u0000\u0000\u0000\u0000\u0000\u0000\u0000\u0000\u0000\u0000\u0000\u0000\u0000\u0000\u0000\u0000\u0000\u0000\u0000\u0000\u0000\u0000\u0000\u0000\u0000\u0000\u0000\u0000\u0000\u0000\u0000\u0000\u0000\u0000\u0000\u0000\u0000\u0000\u0000\u0000\u0000\u0000\u0000\u0000\u0000\u0000\u0000\u0000\u0000\u0000\u0000\u0000\u0000\u0000\u0000\u0000\u0000\u0000\u0000\u0000\u0000\u0000\u0000\u0000\u0000\u0000\u0000\u0000\u0000\u0000\u0000\u0000\u0000\u0000",
