{
  "AcquisitionMatrixPE": 70,
  "AcquisitionNumber": 1,
  "AcquisitionTime": "14:54:41.077500",
  "BandwidthPerPixelPhaseEncode": 51.02,
  "BaseResolution": 70,
  "BodyPartExamined": "HEAD",
  "CoilCombinationMethod": "Sum of Squares",
  "ConsistencyInfo": "N4_VE11C_LATEST_20160120",
  "ConversionSoftware": "dcm2niix",
  "ConversionSoftwareVersion": "v1.0.20220720",
  "DerivedVendorReportedEchoSpacing": 0.000560004,
  "DeviceSerialNumber": "66061",
  "DwellTime": 3.4e-06,
  "EchoTime": 0.022,
  "EchoTrainLength": 35,
  "EffectiveEchoSpacing": 0.000280002,
  "FlipAngle": 90,
  "HeudiconvVersion": "1.1.1",
  "ImageOrientationPatientDICOM": [0.999998, 0.000885319, -0.00191101, -0.00122174, 0.982935, -0.183949],
  "ImageOrientationText": "Tra>Cor(-10.6)>Sag(-0.1)",
  "ImageType": [
    "ORIGINAL",
    "PRIMARY",
    "M",
    "ND",
    "NORM",
    "MOSAIC"
],
  "ImagingFrequency": 123.254,
  "InPlanePhaseEncodingDirectionDICOM": "COL",
  "InstitutionAddress": "Street StreetNo,City/1c4204/,District,KR,ZIP",
  "InstitutionName": "SKKU",
  "InstitutionalDepartmentName": "Department",
  "MRAcquisitionType": "2D",
  "MagneticFieldStrength": 3,
  "Manufacturer": "Siemens",
  "ManufacturersModelName": "Prisma",
  "MatrixCoilMode": "GRAPPA",
  "Modality": "MR",
  "NonlinearGradientCorrection": false,
  "ParallelReductionFactorInPlane": 2,
  "PartialFourier": 1,
  "PatientPosition": "HFS",
  "PercentPhaseFOV": 100,
  "PercentSampling": 100,
  "PhaseEncodingDirection": "j-",
  "PhaseEncodingSteps": 70,
  "PhaseResolution": 1,
  "PixelBandwidth": 2100,
  "ProcedureStepDescription": "Head^PI:Others",
  "ProtocolName": "BOLD_ep2d_3x3x3_dimension1",
  "PulseSequenceDetails": "%SiemensSeq%\\ep2d_pace",
  "ReceiveCoilActiveElements": "HC1-7",
  "ReceiveCoilName": "HeadNeck_64",
  "ReconMatrixPE": 70,
  "RefLinesPE": 24,
  "RepetitionTime": 2,
  "SAR": 0.138168,
  "ScanOptions": "FS",
  "ScanningSequence": "EP",
  "SequenceName": "*epfid2d1_70",
  "SequenceVariant": "SK",
  "SeriesDescription": "BOLD_ep2d_3x3x3_dimension1",
  "SeriesNumber": 8,
  "ShimSetting": [5051, 3728, 4468, 344, -27, -66, -93, 64],
  "SliceThickness": 3,
  "SliceTiming": [0.99, 0, 1.0375, 0.0475, 1.085, 0.095, 1.13, 0.14, 1.1775, 0.1875, 1.225, 0.235, 1.2725, 0.2825, 1.32, 0.33, 1.3675, 0.3775, 1.415, 0.425, 1.46, 0.47, 1.5075, 0.5175, 1.555, 0.565, 1.6025, 0.6125, 1.65, 0.66, 1.6975, 0.7075, 1.745, 0.755, 1.79, 0.8, 1.8375, 0.8475, 1.885, 0.895, 1.9325, 0.9425],
  "SoftwareVersions": "syngo MR E11",
  "SpacingBetweenSlices": 3,
  "StationName": "AWP66061",
  "TaskName": "dimension",
  "TotalReadoutTime": 0.0193202,
  "TxRefAmp": 238.599,
  "dcmmeta_affine": [
    [-2.999993324279785, -0.0036652260459959507, -0.005146622192114592, 101.82050323486328],
    [-0.0026559566613286734, 2.9488048553466797, -0.5518540143966675, -91.2572250366211],
    [-0.005733018275350332, 0.5518482327461243, 2.9488015174865723, -56.03731155395508],
    [0.0, 0.0, 0.0, 1.0]
],
  "dcmmeta_reorient_transform": [
    [0.0, -1.0, 0.0, 69.0],
    [1.0, 0.0, 0.0, 0.0],
    [0.0, 0.0, -1.0, 41.0],
    [0.0, 0.0, 0.0, 1.0]
],
  "dcmmeta_shape": [70, 70, 42, 437],
  "dcmmeta_slice_dim": 2,
  "dcmmeta_version": 0.6,
  "global": {
    "const": {
      "AcquisitionMatrix": [70, 0, 0, 70],
      "AngioFlag": "N",
      "BitsAllocated": 16,
      "BitsStored": 12,
      "BodyPartExamined": "HEAD",
      "Columns": 490,
      "EchoNumbers": 1,
      "EchoTime": 22.0,
      "EchoTrainLength": 35,
      "FlipAngle": 90.0,
      "HighBit": 11,
      "ImageOrientationPatient": [0.99999778213068, 0.00088531885271, -0.0019110060812, -0.0012217420137, 0.9829349511144, -0.1839494202877],
      "ImagePositionPatient": [-730.58549762314, -709.39106245018, 220.03314885474],
      "ImageType": [
        "ORIGINAL",
        "PRIMARY",
        "M",
        "ND",
        "NORM",
        "MOSAIC"
],
      "ImagedNucleus": "1H",
      "ImagingFrequency": 123.254437,
      "InPlanePhaseEncodingDirection": "COL",
      "MRAcquisitionType": "2D",
      "MagneticFieldStrength": 3.0,
      "Manufacturer": "SIEMENS",
      "ManufacturerModelName": "Prisma",
      "Modality": "MR",
      "NumberOfAverages": 1.0,
      "NumberOfPhaseEncodingSteps": 70,
      "PercentPhaseFieldOfView": 100.0,
      "PercentSampling": 100.0,
      "PerformedProcedureStepStartTime": "134842.644000",
      "PhotometricInterpretation": "MONOCHROME2",
      "PixelBandwidth": 2100.0,
      "PixelRepresentation": 0,
      "PixelSpacing": [3.0, 3.0],
      "ProtocolName": "BOLD_ep2d_3x3x3_dimension1",
      "RepetitionTime": 2000.0,
      "Rows": 490,
      "SAR": 0.13816786914351,
      "SamplesPerPixel": 1,
      "ScanOptions": "FS",
      "ScanningSequence": "EP",
      "SequenceName": "*epfid2d1_70",
      "SequenceVariant": "SK",
      "SeriesDescription": "BOLD_ep2d_3x3x3_dimension1",
      "SeriesNumber": 8,
      "SeriesTime": "145535.755000",
      "SliceLocation": 84.531239981023,
      "SliceThickness": 3.0,
      "SmallestImagePixelValue": 0,
      "SoftwareVersions": "syngo MR E11",
      "SpacingBetweenSlices": 2.9999999942106,
      "SpecificCharacterSet": "ISO_IR 100",
      "StudyID": "1",
      "StudyTime": "134842.591000",
      "TransmitCoilName": "Body",
      "VariableFlipAngleFlag": "N",
      "WindowCenterWidthExplanation": "Algo1",
      "dBdt": 0.0},
    "slices": {}
  },
  "time": {
    "samples": {
      "AcquisitionNumber": [1, 2, 3, 4, 5, 6, 7, 8, 9, 10, 11, 12, 13, 14, 15, 16, 17, 18, 19, 20, 21, 22, 23, 24, 25, 26, 27, 28, 29, 30, 31, 32, 33, 34, 35, 36, 37, 38, 39, 40, 41, 42, 43, 44, 45, 46, 47, 48, 49, 50, 51, 52, 53, 54, 55, 56, 57, 58, 59, 60, 61, 62, 63, 64, 65, 66, 67, 68, 69, 70, 71, 72, 73, 74, 75, 76, 77, 78, 79, 80, 81, 82, 83, 84, 85, 86, 87, 88, 89, 90, 91, 92, 93, 94, 95, 96, 97, 98, 99, 100, 101, 102, 103, 104, 105, 106, 107, 108, 109, 110, 111, 112, 113, 114, 115, 116, 117, 118, 119, 120, 121, 122, 123, 124, 125, 126, 127, 128, 129, 130, 131, 132, 133, 134, 135, 136, 137, 138, 139, 140, 141, 142, 143, 144, 145, 146, 147, 148, 149, 150, 151, 152, 153, 154, 155, 156, 157, 158, 159, 160, 161, 162, 163, 164, 165, 166, 167, 168, 169, 170, 171, 172, 173, 174, 175, 176, 177, 178, 179, 180, 181, 182, 183, 184, 185, 186, 187, 188, 189, 190, 191, 192, 193, 194, 195, 196, 197, 198, 199, 200, 201, 202, 203, 204, 205, 206, 207, 208, 209, 210, 211, 212, 213, 214, 215, 216, 217, 218, 219, 220, 221, 222, 223, 224, 225, 226, 227, 228, 229, 230, 231, 232, 233, 234, 235, 236, 237, 238, 239, 240, 241, 242, 243, 244, 245, 246, 247, 248, 249, 250, 251, 252, 253, 254, 255, 256, 257, 258, 259, 260, 261, 262, 263, 264, 265, 266, 267, 268, 269, 270, 271, 272, 273, 274, 275, 276, 277, 278, 279, 280, 281, 282, 283, 284, 285, 286, 287, 288, 289, 290, 291, 292, 293, 294, 295, 296, 297, 298, 299, 300, 301, 302, 303, 304, 305, 306, 307, 308, 309, 310, 311, 312, 313, 314, 315, 316, 317, 318, 319, 320, 321, 322, 323, 324, 325, 326, 327, 328, 329, 330, 331, 332, 333, 334, 335, 336, 337, 338, 339, 340, 341, 342, 343, 344, 345, 346, 347, 348, 349, 350, 351, 352, 353, 354, 355, 356, 357, 358, 359, 360, 361, 362, 363, 364, 365, 366, 367, 368, 369, 370, 371, 372, 373, 374, 375, 376, 377, 378, 379, 380, 381, 382, 383, 384, 385, 386, 387, 388, 389, 390, 391, 392, 393, 394, 395, 396, 397, 398, 399, 400, 401, 402, 403, 404, 405, 406, 407, 408, 409, 410, 411, 412, 413, 414, 415, 416, 417, 418, 419, 420, 421, 422, 423, 424, 425, 426, 427, 428, 429, 430, 431, 432, 433, 434, 435, 436, 437],
      "AcquisitionTime": ["145441.077500", "145443.077500", "145445.077500", "145447.077500", "145449.077500", "145451.077500", "145453.077500", "145455.077500", "145457.077500", "145459.077500", "145501.077500", "145503.077500", "145505.077500", "145507.077500", "145509.077500", "145511.077500", "145513.077500", "145515.077500", "145517.077500", "145519.077500", "145521.077500", "145523.077500", "145525.077500", "145527.077500", "145529.077500", "145531.077500", "145533.077500", "145535.077500", "145537.077500", "145539.077500", "145541.077500", "145543.077500", "145545.077500", "145547.077500", "145549.077500", "145551.077500", "145553.077500", "145555.077500", "145557.077500", "145559.077500", "145601.077500", "145603.077500", "145605.077500", "145607.077500", "145609.077500", "145611.077500", "145613.077500", "145615.077500", "145617.077500", "145619.077500", "145621.077500", "145623.077500", "145625.077500", "145627.077500", "145629.077500", "145631.077500", "145633.077500", "145635.077500", "145637.077500", "145639.077500", "145641.077500", "145643.077500", "145645.077500", "145647.077500", "145649.077500", "145651.077500", "145653.077500", "145655.077500", "145657.077500", "145659.077500", "145701.077500", "145703.077500", "145705.077500", "145707.077500", "145709.077500", "145711.077500", "145713.077500", "145715.077500", "145717.077500", "145719.077500", "145721.077500", "145723.077500", "145725.077500", "145727.077500", "145729.077500", "145731.077500", "145733.077500", "145735.077500", "145737.077500", "145739.077500", "145741.077500", "145743.077500", "145745.077500", "145747.077500", "145749.077500", "145751.077500", "145753.077500", "145755.077500", "145757.077500", "145759.077500", "145801.077500", "145803.077500", "145805.077500", "145807.077500", "145809.077500", "145811.077500", "145813.077500", "145815.077500", "145817.077500", "145819.077500", "145821.077500", "145823.077500", "145825.077500", "145827.077500", "145829.077500", "145831.077500", "145833.077500", "145835.077500", "145837.077500", "145839.077500", "145841.077500", "145843.077500", "145845.077500", "145847.077500", "145849.077500", "145851.077500", "145853.077500", "145855.077500", "145857.077500", "145859.077500", "145901.077500", "145903.077500", "145905.077500", "145907.077500", "145909.077500", "145911.077500", "145913.077500", "145915.077500", "145917.077500", "145919.077500", "145921.077500", "145923.077500", "145925.077500", "145927.077500", "145929.077500", "145931.077500", "145933.077500", "145935.077500", "145937.077500", "145939.077500", "145941.077500", "145943.077500", "145945.077500", "145947.077500", "145949.077500", "145951.077500", "145953.077500", "145955.077500", "145957.077500", "145959.077500", "150001.077500", "150003.077500", "150005.077500", "150007.077500", "150009.077500", "150011.077500", "150013.077500", "150015.077500", "150017.077500", "150019.077500", "150021.077500", "150023.077500", "150025.077500", "150027.077500", "150029.077500", "150031.077500", "150033.077500", "150035.077500", "150037.077500", "150039.077500", "150041.077500", "150043.077500", "150045.077500", "150047.077500", "150049.077500", "150051.077500", "150053.077500", "150055.077500", "150057.077500", "150059.077500", "150101.077500", "150103.077500", "150105.077500", "150107.077500", "150109.077500", "150111.077500", "150113.077500", "150115.077500", "150117.077500", "150119.077500", "150121.077500", "150123.077500", "150125.077500", "150127.077500", "150129.077500", "150131.077500", "150133.077500", "150135.077500", "150137.077500", "150139.077500", "150141.077500", "150143.077500", "150145.077500", "150147.077500", "150149.077500", "150151.077500", "150153.077500", "150155.077500", "150157.077500", "150159.077500", "150201.077500", "150203.077500", "150205.077500", "150207.077500", "150209.077500", "150211.077500", "150213.077500", "150215.077500", "150217.077500", "150219.077500", "150221.077500", "150223.077500", "150225.077500", "150227.077500", "150229.077500", "150231.077500", "150233.077500", "150235.077500", "150237.077500", "150239.077500", "150241.077500", "150243.077500", "150245.077500", "150247.077500", "150249.077500", "150251.077500", "150253.077500", "150255.077500", "150257.077500", "150259.077500", "150301.077500", "150303.077500", "150305.077500", "150307.077500", "150309.077500", "150311.077500", "150313.077500", "150315.077500", "150317.077500", "150319.077500", "150321.077500", "150323.077500", "150325.077500", "150327.077500", "150329.077500", "150331.077500", "150333.077500", "150335.077500", "150337.077500", "150339.077500", "150341.077500", "150343.077500", "150345.077500", "150347.077500", "150349.077500", "150351.077500", "150353.077500", "150355.077500", "150357.077500", "150359.077500", "150401.077500", "150403.077500", "150405.077500", "150407.077500", "150409.077500", "150411.077500", "150413.077500", "150415.077500", "150417.077500", "150419.077500", "150421.077500", "150423.077500", "150425.077500", "150427.077500", "150429.077500", "150431.077500", "150433.077500", "150435.077500", "150437.077500", "150439.077500", "150441.077500", "150443.077500", "150445.077500", "150447.077500", "150449.077500", "150451.077500", "150453.077500", "150455.077500", "150457.077500", "150459.077500", "150501.077500", "150503.077500", "150505.077500", "150507.077500", "150509.077500", "150511.077500", "150513.077500", "150515.077500", "150517.077500", "150519.077500", "150521.077500", "150523.077500", "150525.077500", "150527.077500", "150529.077500", "150531.077500", "150533.077500", "150535.077500", "150537.077500", "150539.077500", "150541.077500", "150543.077500", "150545.077500", "150547.077500", "150549.077500", "150551.077500", "150553.077500", "150555.077500", "150557.077500", "150559.077500", "150601.077500", "150603.077500", "150605.077500", "150607.077500", "150609.077500", "150611.077500", "150613.077500", "150615.077500", "150617.077500", "150619.077500", "150621.077500", "150623.077500", "150625.077500", "150627.077500", "150629.077500", "150631.077500", "150633.077500", "150635.077500", "150637.077500", "150639.077500", "150641.077500", "150643.077500", "150645.077500", "150647.077500", "150649.077500", "150651.077500", "150653.077500", "150655.077500", "150657.077500", "150659.077500", "150701.077500", "150703.077500", "150705.077500", "150707.077500", "150709.077500", "150711.077500", "150713.077500", "150715.077500", "150717.077500", "150719.077500", "150721.077500", "150723.077500", "150725.077500", "150727.077500", "150729.077500", "150731.077500", "150733.077500", "150735.077500", "150737.077500", "150739.077500", "150741.077500", "150743.077500", "150745.077500", "150747.077500", "150749.077500", "150751.077500", "150753.077500", "150755.077500", "150757.077500", "150759.077500", "150801.077500", "150803.077500", "150805.077500", "150807.077500", "150809.077500", "150811.077500", "150813.077500", "150815.077500", "150817.077500", "150819.077500", "150821.077500", "150823.077500", "150825.077500", "150827.077500", "150829.077500", "150831.077500", "150833.077500", "150835.077500", "150837.077500", "150839.077500", "150841.077500", "150843.077500", "150845.077500", "150847.077500", "150849.077500", "150851.077500", "150853.077500", "150855.077500", "150857.077500", "150859.077500", "150901.077500", "150903.077500", "150905.077500", "150907.077500", "150909.077500", "150911.077500", "150913.077500"],
      "ContentTime": ["145535.758000", "145535.762000", "145535.764000", "145535.767000", "145535.770000", "145535.772000", "145535.775000", "145535.778000", "145535.780000", "145535.783000", "145535.796000", "145535.799000", "145535.802000", "145535.810000", "145535.812000", "145535.815000", "145535.818000", "145535.820000", "145535.823000", "145535.826000", "145535.828000", "145535.831000", "145535.834000", "145535.836000", "145535.839000", "145535.842000", "145535.844000", "145615.754000", "145615.756000", "145615.759000", "145615.762000", "145615.765000", "145615.767000", "145615.770000", "145615.773000", "145615.775000", "145615.778000", "145615.791000", "145615.793000", "145615.796000", "145615.799000", "145615.801000", "145615.804000", "145615.806000", "145615.809000", "145615.812000", "145615.814000", "145655.752000", "145655.755000", "145655.758000", "145655.761000", "145655.764000", "145655.766000", "145655.769000", "145655.771000", "145655.774000", "145655.777000", "145655.779000", "145655.782000", "145655.785000", "145655.787000", "145655.790000", "145655.793000", "145655.795000", "145655.798000", "145655.800000", "145655.803000", "145735.752000", "145735.768000", "145735.771000", "145735.774000", "145735.776000", "145735.779000", "145735.781000", "145735.784000", "145735.787000", "145735.790000", "145735.792000", "145735.795000", "145735.798000", "145735.800000", "145735.803000", "145735.806000", "145735.808000", "145735.811000", "145735.814000", "145735.829000", "145815.754000", "145815.756000", "145815.759000", "145815.762000", "145815.765000", "145815.767000", "145815.770000", "145815.773000", "145815.775000", "145815.778000", "145815.780000", "145815.783000", "145815.786000", "145815.788000", "145815.791000", "145815.801000", "145815.803000", "145815.806000", "145815.809000", "145815.811000", "145855.753000", "145855.755000", "145855.758000", "145855.761000", "145855.763000", "145855.766000", "145855.769000", "145855.771000", "145855.774000", "145855.777000", "145855.779000", "145855.782000", "145855.785000", "145855.787000", "145855.790000", "145855.793000", "145855.795000", "145855.798000", "145855.801000", "145855.803000", "145935.752000", "145935.755000", "145935.758000", "145935.761000", "145935.763000", "145935.766000", "145935.769000", "145935.771000", "145935.774000", "145935.777000", "145935.780000", "145935.782000", "145935.785000", "145935.788000", "145935.790000", "145935.793000", "145935.796000", "145935.798000", "145935.801000", "145935.804000", "150015.754000", "150015.756000", "150015.759000", "150015.762000", "150015.765000", "150015.767000", "150015.770000", "150015.773000", "150015.775000", "150015.778000", "150015.780000", "150015.783000", "150015.786000", "150015.788000", "150015.791000", "150015.794000", "150015.796000", "150015.799000", "150015.802000", "150015.804000", "150055.753000", "150055.756000", "150055.758000", "150055.761000", "150055.764000", "150055.766000", "150055.769000", "150055.772000", "150055.774000", "150055.777000", "150055.780000", "150055.782000", "150055.785000", "150055.788000", "150055.790000", "150055.793000", "150055.796000", "150055.798000", "150055.801000", "150055.804000", "150135.753000", "150135.756000", "150135.758000", "150135.761000", "150135.764000", "150135.766000", "150135.769000", "150135.772000", "150135.774000", "150135.777000", "150135.780000", "150135.782000", "150135.785000", "150135.788000", "150135.790000", "150135.793000", "150135.796000", "150135.798000", "150135.801000", "150135.804000", "150215.753000", "150215.755000", "150215.758000", "150215.761000", "150215.772000", "150215.774000", "150215.777000", "150215.780000", "150215.782000", "150215.785000", "150215.788000", "150215.790000", "150215.793000", "150215.796000", "150215.798000", "150215.801000", "150215.804000", "150215.806000", "150215.809000", "150215.812000", "150255.754000", "150255.756000", "150255.759000", "150255.762000", "150255.765000", "150255.767000", "150255.770000", "150255.773000", "150255.775000", "150255.778000", "150255.781000", "150255.783000", "150255.786000", "150255.789000", "150255.791000", "150255.794000", "150255.797000", "150255.799000", "150255.802000", "150255.805000", "150335.753000", "150335.755000", "150335.758000", "150335.761000", "150335.764000", "150335.766000", "150335.769000", "150335.772000", "150335.774000", "150335.777000", "150335.780000", "150335.782000", "150335.785000", "150335.788000", "150335.790000", "150335.793000", "150335.796000", "150335.798000", "150335.801000", "150335.804000", "150415.753000", "150415.756000", "150415.758000", "150415.761000", "150415.764000", "150415.766000", "150415.769000", "150415.772000", "150415.774000", "150415.777000", "150415.780000", "150415.782000", "150415.785000", "150415.788000", "150415.790000", "150415.793000", "150415.796000", "150415.798000", "150415.801000", "150415.804000", "150455.754000", "150455.756000", "150455.759000", "150455.762000", "150455.764000", "150455.767000", "150455.770000", "150455.773000", "150455.775000", "150455.778000", "150455.781000", "150455.783000", "150455.786000", "150455.789000", "150455.791000", "150455.794000", "150455.797000", "150455.799000", "150455.802000", "150455.816000", "150535.753000", "150535.755000", "150535.758000", "150535.761000", "150535.763000", "150535.766000", "150535.769000", "150535.772000", "150535.774000", "150535.777000", "150535.779000", "150535.782000", "150535.785000", "150535.787000", "150535.790000", "150535.793000", "150535.796000", "150535.798000", "150535.801000", "150535.804000", "150615.753000", "150615.755000", "150615.758000", "150615.761000", "150615.764000", "150615.766000", "150615.769000", "150615.772000", "150615.774000", "150615.777000", "150615.779000", "150615.782000", "150615.785000", "150615.788000", "150615.790000", "150615.801000", "150615.804000", "150615.806000", "150615.809000", "150615.812000", "150655.753000", "150655.756000", "150655.758000", "150655.761000", "150655.764000", "150655.766000", "150655.769000", "150655.772000", "150655.774000", "150655.777000", "150655.780000", "150655.783000", "150655.785000", "150655.788000", "150655.790000", "150655.793000", "150655.796000", "150655.798000", "150655.801000", "150655.804000", "150735.754000", "150735.756000", "150735.759000", "150735.762000", "150735.765000", "150735.767000", "150735.770000", "150735.773000", "150735.775000", "150735.778000", "150735.781000", "150735.784000", "150735.786000", "150735.789000", "150735.792000", "150735.794000", "150735.797000", "150735.799000", "150735.802000", "150735.805000", "150815.753000", "150815.756000", "150815.758000", "150815.761000", "150815.764000", "150815.767000", "150815.769000", "150815.772000", "150815.775000", "150815.777000", "150815.780000", "150815.783000", "150815.785000", "150815.788000", "150815.791000", "150815.793000", "150815.796000", "150815.799000", "150815.801000", "150815.804000", "150855.753000", "150855.756000", "150855.758000", "150855.761000", "150855.764000", "150855.766000", "150855.769000", "150855.772000", "150855.775000", "150855.777000", "150855.780000", "150855.783000", "150855.785000", "150855.788000", "150855.790000", "150855.793000", "150855.796000", "150855.798000", "150855.801000", "150855.804000", "150914.578000", "150914.581000", "150914.584000", "150914.586000", "150914.589000", "150914.592000", "150914.595000", "150914.597000", "150914.600000", "150914.603000"],
      "InstanceCreationTime": ["145535.758000", "145535.762000", "145535.764000", "145535.767000", "145535.770000", "145535.772000", "145535.775000", "145535.778000", "145535.780000", "145535.783000", "145535.796000", "145535.799000", "145535.802000", "145535.810000", "145535.812000", "145535.815000", "145535.818000", "145535.820000", "145535.823000", "145535.826000", "145535.828000", "145535.831000", "145535.834000", "145535.836000", "145535.839000", "145535.842000", "145535.844000", "145615.754000", "145615.756000", "145615.759000", "145615.762000", "145615.765000", "145615.767000", "145615.770000", "145615.773000", "145615.775000", "145615.778000", "145615.791000", "145615.793000", "145615.796000", "145615.799000", "145615.801000", "145615.804000", "145615.806000", "145615.809000", "145615.812000", "145615.814000", "145655.752000", "145655.755000", "145655.758000", "145655.761000", "145655.764000", "145655.766000", "145655.769000", "145655.771000", "145655.774000", "145655.777000", "145655.779000", "145655.782000", "145655.785000", "145655.787000", "145655.790000", "145655.793000", "145655.795000", "145655.798000", "145655.800000", "145655.803000", "145735.752000", "145735.768000", "145735.771000", "145735.774000", "145735.776000", "145735.779000", "145735.781000", "145735.784000", "145735.787000", "145735.790000", "145735.792000", "145735.795000", "145735.798000", "145735.800000", "145735.803000", "145735.806000", "145735.808000", "145735.811000", "145735.814000", "145735.829000", "145815.754000", "145815.756000", "145815.759000", "145815.762000", "145815.765000", "145815.767000", "145815.770000", "145815.773000", "145815.775000", "145815.778000", "145815.780000", "145815.783000", "145815.786000", "145815.788000", "145815.791000", "145815.801000", "145815.803000", "145815.806000", "145815.809000", "145815.811000", "145855.753000", "145855.755000", "145855.758000", "145855.761000", "145855.763000", "145855.766000", "145855.769000", "145855.771000", "145855.774000", "145855.777000", "145855.779000", "145855.782000", "145855.785000", "145855.787000", "145855.790000", "145855.793000", "145855.795000", "145855.798000", "145855.801000", "145855.803000", "145935.752000", "145935.755000", "145935.758000", "145935.761000", "145935.763000", "145935.766000", "145935.769000", "145935.771000", "145935.774000", "145935.777000", "145935.780000", "145935.782000", "145935.785000", "145935.788000", "145935.790000", "145935.793000", "145935.796000", "145935.798000", "145935.801000", "145935.804000", "150015.754000", "150015.756000", "150015.759000", "150015.762000", "150015.765000", "150015.767000", "150015.770000", "150015.773000", "150015.775000", "150015.778000", "150015.780000", "150015.783000", "150015.786000", "150015.788000", "150015.791000", "150015.794000", "150015.796000", "150015.799000", "150015.802000", "150015.804000", "150055.753000", "150055.756000", "150055.758000", "150055.761000", "150055.764000", "150055.766000", "150055.769000", "150055.772000", "150055.774000", "150055.777000", "150055.780000", "150055.782000", "150055.785000", "150055.788000", "150055.790000", "150055.793000", "150055.796000", "150055.798000", "150055.801000", "150055.804000", "150135.753000", "150135.756000", "150135.758000", "150135.761000", "150135.764000", "150135.766000", "150135.769000", "150135.772000", "150135.774000", "150135.777000", "150135.780000", "150135.782000", "150135.785000", "150135.788000", "150135.790000", "150135.793000", "150135.796000", "150135.798000", "150135.801000", "150135.804000", "150215.753000", "150215.755000", "150215.758000", "150215.761000", "150215.772000", "150215.774000", "150215.777000", "150215.780000", "150215.782000", "150215.785000", "150215.788000", "150215.790000", "150215.793000", "150215.796000", "150215.798000", "150215.801000", "150215.804000", "150215.806000", "150215.809000", "150215.812000", "150255.754000", "150255.756000", "150255.759000", "150255.762000", "150255.765000", "150255.767000", "150255.770000", "150255.773000", "150255.775000", "150255.778000", "150255.781000", "150255.783000", "150255.786000", "150255.789000", "150255.791000", "150255.794000", "150255.797000", "150255.799000", "150255.802000", "150255.805000", "150335.753000", "150335.755000", "150335.758000", "150335.761000", "150335.764000", "150335.766000", "150335.769000", "150335.772000", "150335.774000", "150335.777000", "150335.780000", "150335.782000", "150335.785000", "150335.788000", "150335.790000", "150335.793000", "150335.796000", "150335.798000", "150335.801000", "150335.804000", "150415.753000", "150415.756000", "150415.758000", "150415.761000", "150415.764000", "150415.766000", "150415.769000", "150415.772000", "150415.774000", "150415.777000", "150415.780000", "150415.782000", "150415.785000", "150415.788000", "150415.790000", "150415.793000", "150415.796000", "150415.798000", "150415.801000", "150415.804000", "150455.754000", "150455.756000", "150455.759000", "150455.762000", "150455.764000", "150455.767000", "150455.770000", "150455.773000", "150455.775000", "150455.778000", "150455.781000", "150455.783000", "150455.786000", "150455.789000", "150455.791000", "150455.794000", "150455.797000", "150455.799000", "150455.802000", "150455.816000", "150535.753000", "150535.755000", "150535.758000", "150535.761000", "150535.763000", "150535.766000", "150535.769000", "150535.772000", "150535.774000", "150535.777000", "150535.779000", "150535.782000", "150535.785000", "150535.787000", "150535.790000", "150535.793000", "150535.796000", "150535.798000", "150535.801000", "150535.804000", "150615.753000", "150615.755000", "150615.758000", "150615.761000", "150615.764000", "150615.766000", "150615.769000", "150615.772000", "150615.774000", "150615.777000", "150615.779000", "150615.782000", "150615.785000", "150615.788000", "150615.790000", "150615.801000", "150615.804000", "150615.806000", "150615.809000", "150615.812000", "150655.753000", "150655.756000", "150655.758000", "150655.761000", "150655.764000", "150655.766000", "150655.769000", "150655.772000", "150655.774000", "150655.777000", "150655.780000", "150655.783000", "150655.785000", "150655.788000", "150655.790000", "150655.793000", "150655.796000", "150655.798000", "150655.801000", "150655.804000", "150735.754000", "150735.756000", "150735.759000", "150735.762000", "150735.765000", "150735.767000", "150735.770000", "150735.773000", "150735.775000", "150735.778000", "150735.781000", "150735.784000", "150735.786000", "150735.789000", "150735.792000", "150735.794000", "150735.797000", "150735.799000", "150735.802000", "150735.805000", "150815.753000", "150815.756000", "150815.758000", "150815.761000", "150815.764000", "150815.767000", "150815.769000", "150815.772000", "150815.775000", "150815.777000", "150815.780000", "150815.783000", "150815.785000", "150815.788000", "150815.791000", "150815.793000", "150815.796000", "150815.799000", "150815.801000", "150815.804000", "150855.753000", "150855.756000", "150855.758000", "150855.761000", "150855.764000", "150855.766000", "150855.769000", "150855.772000", "150855.775000", "150855.777000", "150855.780000", "150855.783000", "150855.785000", "150855.788000", "150855.790000", "150855.793000", "150855.796000", "150855.798000", "150855.801000", "150855.804000", "150914.578000", "150914.581000", "150914.584000", "150914.586000", "150914.589000", "150914.592000", "150914.595000", "150914.597000", "150914.600000", "150914.603000"],
