{
  "AcquisitionMatrixPE": 70,
  "AcquisitionNumber": 1,
  "AcquisitionTime": "15:18:0.822500",
  "BandwidthPerPixelPhaseEncode": 51.948,
  "BaseResolution": 70,
  "BodyPartExamined": "HEAD",
  "CoilCombinationMethod": "Sum of Squares",
  "ConsistencyInfo": "N4_VE11C_LATEST_20160120",
  "ConversionSoftware": "dcm2niix",
  "ConversionSoftwareVersion": "v1.0.20220720",
  "DerivedVendorReportedEchoSpacing": 0.000550001,
  "DeviceSerialNumber": "66061",
  "DwellTime": 3.3e-06,
  "EchoTime": 0.022,
  "EchoTrainLength": 35,
  "EffectiveEchoSpacing": 0.000275,
  "FlipAngle": 90,
  "HeudiconvVersion": "1.1.1",
  "ImageOrientationPatientDICOM": [0.999998, 0.00151649, 0.00146153, -0.00122175, 0.982934, -0.183954],
  "ImageOrientationText": "Tra>Cor(-10.6)>Sag(0.1)",
  "ImageType": [
    "ORIGINAL",
    "PRIMARY",
    "M",
    "ND",
    "NORM",
    "MOSAIC"
],
  "ImagingFrequency": 123.255,
  "InPlanePhaseEncodingDirectionDICOM": "COL",
  "InstitutionAddress": "Street StreetNo,City/1c4204/,District,KR,ZIP",
  "InstitutionName": "SKKU",
  "InstitutionalDepartmentName": "Department",
  "MRAcquisitionType": "2D",
  "MagneticFieldStrength": 3,
  "Manufacturer": "Siemens",
  "ManufacturersModelName": "Prisma",
  "MatrixCoilMode": "GRAPPA",
  "Modality": "MR",
  "NonlinearGradientCorrection": false,
  "ParallelReductionFactorInPlane": 2,
  "PartialFourier": 1,
  "PatientPosition": "HFS",
  "PercentPhaseFOV": 100,
  "PercentSampling": 100,
  "PhaseEncodingDirection": "j-",
  "PhaseEncodingSteps": 70,
  "PhaseResolution": 1,
  "PixelBandwidth": 2165,
  "ProcedureStepDescription": "Head^PI:Others",
  "ProtocolName": "BOLD_ep2d_3x3x3_response2",
  "PulseSequenceDetails": "%SiemensSeq%\\ep2d_pace",
  "ReceiveCoilActiveElements": "HC1-7",
  "ReceiveCoilName": "HeadNeck_64",
  "ReconMatrixPE": 70,
  "RefLinesPE": 24,
  "RepetitionTime": 2,
  "SAR": 0.132812,
  "ScanOptions": "FS",
  "ScanningSequence": "EP",
  "SequenceName": "*epfid2d1_70",
  "SequenceVariant": "SK",
  "SeriesDescription": "BOLD_ep2d_3x3x3_response2",
  "SeriesNumber": 9,
  "ShimSetting": [5057, 3736, 4472, 313, -41, -2, -62, 47],
  "SliceThickness": 3,
  "SliceTiming": [0.99, 0, 1.0375, 0.0475, 1.0825, 0.0925, 1.13, 0.14, 1.1775, 0.1875, 1.225, 0.235, 1.2725, 0.2825, 1.32, 0.33, 1.3675, 0.3775, 1.4125, 0.4225, 1.46, 0.47, 1.5075, 0.5175, 1.555, 0.565, 1.6025, 0.6125, 1.65, 0.66, 1.6975, 0.7075, 1.7425, 0.7525, 1.79, 0.8, 1.8375, 0.8475, 1.885, 0.895, 1.9325, 0.9425],
  "SoftwareVersions": "syngo MR E11",
  "SpacingBetweenSlices": 3,
  "StationName": "AWP66061",
  "TaskName": "response",
  "TotalReadoutTime": 0.018975,
  "TxRefAmp": 236.327,
  "dcmmeta_affine": [
    [-2.999993324279785, -0.0036652612034231424, 0.005146656651049852, 105.7611312866211],
    [-0.004549454897642136, 2.9488024711608887, -0.5518540143966675, -92.99810791015625],
    [0.0043845949694514275, 0.5518606305122375, 2.9488015174865723, -54.58598709106445],
    [0.0, 0.0, 0.0, 1.0]
],
  "dcmmeta_reorient_transform": [
    [0.0, -1.0, 0.0, 69.0],
    [1.0, 0.0, 0.0, 0.0],
    [0.0, 0.0, -1.0, 41.0],
    [0.0, 0.0, 0.0, 1.0]
],
  "dcmmeta_shape": [70, 70, 42, 341],
  "dcmmeta_slice_dim": 2,
  "dcmmeta_version": 0.6,
  "global": {
    "const": {
      "AcquisitionMatrix": [70, 0, 0, 70],
      "AngioFlag": "N",
      "BitsAllocated": 16,
      "BitsStored": 12,
      "BodyPartExamined": "HEAD",
      "Columns": 490,
      "EchoNumbers": 1,
      "EchoTime": 22.0,
      "EchoTrainLength": 35,
      "FlipAngle": 90.0,
      "HighBit": 11,
      "ImageOrientationPatient": [0.99999778209676, 0.00151648502008, 0.00146153164525, -0.0012217537537, 0.98293418054735, -0.1839535376922],
      "ImagePositionPatient": [-734.9481388273, -708.04717417436, 219.36322234489],
      "ImageType": [
        "ORIGINAL",
        "PRIMARY",
        "M",
        "ND",
        "NORM",
        "MOSAIC"
],
      "ImagedNucleus": "1H",
      "ImagingFrequency": 123.254616,
      "InPlanePhaseEncodingDirection": "COL",
      "MRAcquisitionType": "2D",
      "MagneticFieldStrength": 3.0,
      "Manufacturer": "SIEMENS",
      "ManufacturerModelName": "Prisma",
      "Modality": "MR",
      "NumberOfAverages": 1.0,
      "NumberOfPhaseEncodingSteps": 70,
      "PercentPhaseFieldOfView": 100.0,
      "PercentSampling": 100.0,
      "PerformedProcedureStepStartTime": "141628.147000",
      "PhotometricInterpretation": "MONOCHROME2",
      "PixelBandwidth": 2165.0,
      "PixelRepresentation": 0,
      "PixelSpacing": [3.0, 3.0],
      "ProtocolName": "BOLD_ep2d_3x3x3_response2",
      "RepetitionTime": 2000.0,
      "Rows": 490,
      "SAR": 0.13281244769813,
      "SamplesPerPixel": 1,
      "ScanOptions": "FS",
      "ScanningSequence": "EP",
      "SequenceName": "*epfid2d1_70",
      "SequenceVariant": "SK",
      "SeriesDescription": "BOLD_ep2d_3x3x3_response2",
      "SeriesNumber": 9,
      "SeriesTime": "151859.331000",
      "SliceLocation": 86.634149942738,
      "SliceThickness": 3.0,
      "SmallestImagePixelValue": 0,
      "SoftwareVersions": "syngo MR E11",
      "SpacingBetweenSlices": 2.9999999942056,
      "SpecificCharacterSet": "ISO_IR 100",
      "StudyID": "1",
      "StudyTime": "141628.084000",
      "TransmitCoilName": "Body",
      "VariableFlipAngleFlag": "N",
      "WindowCenterWidthExplanation": "Algo1",
      "dBdt": 0.0},
    "slices": {}
  },
  "time": {
    "samples": {
      "AcquisitionNumber": [1, 2, 3, 4, 5, 6, 7, 8, 9, 10, 11, 12, 13, 14, 15, 16, 17, 18, 19, 20, 21, 22, 23, 24, 25, 26, 27, 28, 29, 30, 31, 32, 33, 34, 35, 36, 37, 38, 39, 40, 41, 42, 43, 44, 45, 46, 47, 48, 49, 50, 51, 52, 53, 54, 55, 56, 57, 58, 59, 60, 61, 62, 63, 64, 65, 66, 67, 68, 69, 70, 71, 72, 73, 74, 75, 76, 77, 78, 79, 80, 81, 82, 83, 84, 85, 86, 87, 88, 89, 90, 91, 92, 93, 94, 95, 96, 97, 98, 99, 100, 101, 102, 103, 104, 105, 106, 107, 108, 109, 110, 111, 112, 113, 114, 115, 116, 117, 118, 119, 120, 121, 122, 123, 124, 125, 126, 127, 128, 129, 130, 131, 132, 133, 134, 135, 136, 137, 138, 139, 140, 141, 142, 143, 144, 145, 146, 147, 148, 149, 150, 151, 152, 153, 154, 155, 156, 157, 158, 159, 160, 161, 162, 163, 164, 165, 166, 167, 168, 169, 170, 171, 172, 173, 174, 175, 176, 177, 178, 179, 180, 181, 182, 183, 184, 185, 186, 187, 188, 189, 190, 191, 192, 193, 194, 195, 196, 197, 198, 199, 200, 201, 202, 203, 204, 205, 206, 207, 208, 209, 210, 211, 212, 213, 214, 215, 216, 217, 218, 219, 220, 221, 222, 223, 224, 225, 226, 227, 228, 229, 230, 231, 232, 233, 234, 235, 236, 237, 238, 239, 240, 241, 242, 243, 244, 245, 246, 247, 248, 249, 250, 251, 252, 253, 254, 255, 256, 257, 258, 259, 260, 261, 262, 263, 264, 265, 266, 267, 268, 269, 270, 271, 272, 273, 274, 275, 276, 277, 278, 279, 280, 281, 282, 283, 284, 285, 286, 287, 288, 289, 290, 291, 292, 293, 294, 295, 296, 297, 298, 299, 300, 301, 302, 303, 304, 305, 306, 307, 308, 309, 310, 311, 312, 313, 314, 315, 316, 317, 318, 319, 320, 321, 322, 323, 324, 325, 326, 327, 328, 329, 330, 331, 332, 333, 334, 335, 336, 337, 338, 339, 340, 341],
      "AcquisitionTime": ["151800.822500", "151802.822500", "151804.822500", "151806.822500", "151808.822500", "151810.822500", "151812.822500", "151814.822500", "151816.822500", "151818.822500", "151820.822500", "151822.822500", "151824.822500", "151826.822500", "151828.822500", "151830.822500", "151832.822500", "151834.822500", "151836.822500", "151838.822500", "151840.822500", "151842.822500", "151844.822500", "151846.822500", "151848.822500", "151850.822500", "151852.822500", "151854.822500", "151856.822500", "151858.822500", "151900.822500", "151902.822500", "151904.822500", "151906.822500", "151908.822500", "151910.822500", "151912.822500", "151914.822500", "151916.822500", "151918.822500", "151920.822500", "151922.822500", "151924.822500", "151926.822500", "151928.822500", "151930.822500", "151932.822500", "151934.822500", "151936.822500", "151938.822500", "151940.822500", "151942.822500", "151944.822500", "151946.822500", "151948.822500", "151950.822500", "151952.822500", "151954.822500", "151956.822500", "151958.822500", "152000.822500", "152002.822500", "152004.822500", "152006.822500", "152008.822500", "152010.822500", "152012.822500", "152014.822500", "152016.822500", "152018.822500", "152020.822500", "152022.822500", "152024.822500", "152026.822500", "152028.822500", "152030.822500", "152032.822500", "152034.822500", "152036.822500", "152038.822500", "152040.822500", "152042.822500", "152044.822500", "152046.822500", "152048.822500", "152050.822500", "152052.822500", "152054.822500", "152056.822500", "152058.822500", "152100.822500", "152102.822500", "152104.822500", "152106.822500", "152108.822500", "152110.822500", "152112.822500", "152114.822500", "152116.822500", "152118.822500", "152120.822500", "152122.822500", "152124.822500", "152126.822500", "152128.822500", "152130.822500", "152132.822500", "152134.822500", "152136.822500", "152138.822500", "152140.822500", "152142.822500", "152144.822500", "152146.822500", "152148.822500", "152150.822500", "152152.822500", "152154.822500", "152156.822500", "152158.822500", "152200.822500", "152202.822500", "152204.822500", "152206.822500", "152208.822500", "152210.822500", "152212.822500", "152214.822500", "152216.822500", "152218.822500", "152220.822500", "152222.822500", "152224.822500", "152226.822500", "152228.822500", "152230.822500", "152232.822500", "152234.822500", "152236.822500", "152238.822500", "152240.822500", "152242.822500", "152244.822500", "152246.822500", "152248.822500", "152250.822500", "152252.822500", "152254.822500", "152256.822500", "152258.822500", "152300.822500", "152302.822500", "152304.822500", "152306.822500", "152308.822500", "152310.822500", "152312.822500", "152314.822500", "152316.822500", "152318.822500", "152320.822500", "152322.822500", "152324.822500", "152326.822500", "152328.822500", "152330.822500", "152332.822500", "152334.822500", "152336.822500", "152338.822500", "152340.822500", "152342.822500", "152344.822500", "152346.822500", "152348.822500", "152350.822500", "152352.822500", "152354.822500", "152356.822500", "152358.822500", "152400.822500", "152402.822500", "152404.822500", "152406.822500", "152408.822500", "152410.822500", "152412.822500", "152414.822500", "152416.822500", "152418.822500", "152420.822500", "152422.822500", "152424.822500", "152426.822500", "152428.822500", "152430.822500", "152432.822500", "152434.822500", "152436.822500", "152438.822500", "152440.822500", "152442.822500", "152444.822500", "152446.822500", "152448.822500", "152450.822500", "152452.822500", "152454.822500", "152456.822500", "152458.822500", "152500.822500", "152502.822500", "152504.822500", "152506.822500", "152508.822500", "152510.822500", "152512.822500", "152514.822500", "152516.822500", "152518.822500", "152520.822500", "152522.822500", "152524.822500", "152526.822500", "152528.822500", "152530.822500", "152532.822500", "152534.822500", "152536.822500", "152538.822500", "152540.822500", "152542.822500", "152544.822500", "152546.822500", "152548.822500", "152550.822500", "152552.822500", "152554.822500", "152556.822500", "152558.822500", "152600.822500", "152602.822500", "152604.822500", "152606.822500", "152608.822500", "152610.822500", "152612.822500", "152614.822500", "152616.822500", "152618.822500", "152620.822500", "152622.822500", "152624.822500", "152626.822500", "152628.822500", "152630.822500", "152632.822500", "152634.822500", "152636.822500", "152638.822500", "152640.822500", "152642.822500", "152644.822500", "152646.822500", "152648.822500", "152650.822500", "152652.822500", "152654.822500", "152656.822500", "152658.822500", "152700.822500", "152702.822500", "152704.822500", "152706.822500", "152708.822500", "152710.822500", "152712.822500", "152714.822500", "152716.822500", "152718.822500", "152720.822500", "152722.822500", "152724.822500", "152726.822500", "152728.822500", "152730.822500", "152732.822500", "152734.822500", "152736.822500", "152738.822500", "152740.822500", "152742.822500", "152744.822500", "152746.822500", "152748.822500", "152750.822500", "152752.822500", "152754.822500", "152756.822500", "152758.822500", "152800.822500", "152802.822500", "152804.822500", "152806.822500", "152808.822500", "152810.822500", "152812.822500", "152814.822500", "152816.822500", "152818.822500", "152820.822500", "152822.822500", "152824.822500", "152826.822500", "152828.822500", "152830.822500", "152832.822500", "152834.822500", "152836.822500", "152838.822500", "152840.822500", "152842.822500", "152844.822500", "152846.822500", "152848.822500", "152850.822500", "152852.822500", "152854.822500", "152856.822500", "152858.822500", "152900.822500", "152902.822500", "152904.822500", "152906.822500", "152908.822500", "152910.822500", "152912.822500", "152914.822500", "152916.822500", "152918.822500", "152920.822500"],
      "ContentTime": ["151859.334000", "151859.337000", "151859.340000", "151859.343000", "151859.345000", "151859.348000", "151859.350000", "151859.353000", "151859.356000", "151859.358000", "151859.367000", "151859.370000", "151859.372000", "151859.375000", "151859.377000", "151859.380000", "151859.383000", "151859.385000", "151859.388000", "151859.391000", "151859.393000", "151859.396000", "151859.398000", "151859.401000", "151859.404000", "151859.406000", "151859.409000", "151859.412000", "151859.414000", "151939.330000", "151939.332000", "151939.335000", "151939.338000", "151939.340000", "151939.354000", "151939.356000", "151939.359000", "151939.361000", "151939.364000", "151939.367000", "151939.369000", "151939.379000", "151939.381000", "151939.384000", "151939.386000", "151939.389000", "151939.392000", "151939.394000", "151939.397000", "152019.330000", "152019.333000", "152019.336000", "152019.339000", "152019.341000", "152019.344000", "152019.346000", "152019.349000", "152019.352000", "152019.354000", "152019.357000", "152019.359000", "152019.362000", "152019.365000", "152019.367000", "152019.370000", "152019.372000", "152019.375000", "152019.386000", "152019.389000", "152059.331000", "152059.333000", "152059.336000", "152059.339000", "152059.341000", "152059.344000", "152059.347000", "152059.349000", "152059.352000", "152059.354000", "152059.357000", "152059.360000", "152059.362000", "152059.365000", "152059.367000", "152059.370000", "152059.373000", "152059.375000", "152059.378000", "152059.381000", "152139.330000", "152139.332000", "152139.341000", "152139.344000", "152139.346000", "152139.349000", "152139.352000", "152139.355000", "152139.357000", "152139.360000", "152139.363000", "152139.365000", "152139.368000", "152139.371000", "152139.373000", "152139.376000", "152139.378000", "152139.381000", "152139.384000", "152139.386000", "152219.329000", "152219.332000", "152219.335000", "152219.338000", "152219.340000", "152219.343000", "152219.346000", "152219.348000", "152219.351000", "152219.354000", "152219.356000", "152219.359000", "152219.362000", "152219.364000", "152219.367000", "152219.370000", "152219.372000", "152219.375000", "152219.377000", "152219.380000", "152259.330000", "152259.333000", "152259.336000", "152259.339000", "152259.341000", "152259.344000", "152259.347000", "152259.349000", "152259.352000", "152259.355000", "152259.357000", "152259.360000", "152259.362000", "152259.365000", "152259.368000", "152259.370000", "152259.373000", "152259.376000", "152259.378000", "152259.381000", "152339.330000", "152339.332000", "152339.335000", "152339.338000", "152339.340000", "152339.343000", "152339.346000", "152339.348000", "152339.351000", "152339.354000", "152339.356000", "152339.359000", "152339.361000", "152339.364000", "152339.367000", "152339.369000", "152339.372000", "152339.374000", "152339.377000", "152339.380000", "152419.330000", "152419.333000", "152419.335000", "152419.338000", "152419.340000", "152419.343000", "152419.346000", "152419.348000", "152419.351000", "152419.354000", "152419.356000", "152419.359000", "152419.361000", "152419.381000", "152419.384000", "152419.386000", "152419.389000", "152419.391000", "152419.394000", "152419.397000", "152459.330000", "152459.333000", "152459.336000", "152459.339000", "152459.341000", "152459.344000", "152459.347000", "152459.349000", "152459.352000", "152459.354000", "152459.357000", "152459.360000", "152459.362000", "152459.365000", "152459.368000", "152459.370000", "152459.373000", "152459.376000", "152459.378000", "152459.381000", "152539.330000", "152539.332000", "152539.335000", "152539.338000", "152539.340000", "152539.343000", "152539.346000", "152539.348000", "152539.351000", "152539.353000", "152539.356000", "152539.359000", "152539.361000", "152539.364000", "152539.367000", "152539.369000", "152539.372000", "152539.375000", "152539.377000", "152539.380000", "152619.329000", "152619.332000", "152619.335000", "152619.338000", "152619.340000", "152619.343000", "152619.346000", "152619.348000", "152619.351000", "152619.354000", "152619.356000", "152619.359000", "152619.361000", "152619.364000", "152619.367000", "152619.369000", "152619.372000", "152619.375000", "152619.377000", "152619.380000", "152659.329000", "152659.332000", "152659.335000", "152659.337000", "152659.340000", "152659.343000", "152659.346000", "152659.348000", "152659.351000", "152659.353000", "152659.356000", "152659.359000", "152659.361000", "152659.364000", "152659.367000", "152659.369000", "152659.372000", "152659.375000", "152659.377000", "152659.380000", "152739.331000", "152739.333000", "152739.336000", "152739.354000", "152739.357000", "152739.359000", "152739.362000", "152739.365000", "152739.367000", "152739.370000", "152739.372000", "152739.375000", "152739.378000", "152739.380000", "152739.383000", "152739.385000", "152739.388000", "152739.391000", "152739.393000", "152739.396000", "152819.330000", "152819.333000", "152819.335000", "152819.338000", "152819.341000", "152819.343000", "152819.346000", "152819.349000", "152819.351000", "152819.354000", "152819.356000", "152819.359000", "152819.362000", "152819.364000", "152819.367000", "152819.376000", "152819.379000", "152819.382000", "152819.384000", "152819.387000", "152859.330000", "152859.332000", "152859.335000", "152859.338000", "152859.340000", "152859.343000", "152859.346000", "152859.348000", "152859.351000", "152859.354000", "152859.356000", "152859.359000", "152859.362000", "152859.364000", "152859.367000", "152859.370000", "152859.372000", "152859.375000", "152859.377000", "152859.380000", "152922.554000", "152922.557000", "152922.560000", "152922.563000", "152922.566000", "152922.568000", "152922.571000", "152922.574000", "152922.576000", "152922.579000", "152922.582000", "152922.584000"],
      "InstanceCreationTime": ["151859.334000", "151859.337000", "151859.340000", "151859.343000", "151859.345000", "151859.348000", "151859.350000", "151859.353000", "151859.356000", "151859.358000", "151859.367000", "151859.370000", "151859.372000", "151859.375000", "151859.377000", "151859.380000", "151859.383000", "151859.385000", "151859.388000", "151859.391000", "151859.393000", "151859.396000", "151859.398000", "151859.401000", "151859.404000", "151859.406000", "151859.409000", "151859.412000", "151859.414000", "151939.330000", "151939.332000", "151939.335000", "151939.338000", "151939.340000", "151939.354000", "151939.356000", "151939.359000", "151939.361000", "151939.364000", "151939.367000", "151939.369000", "151939.379000", "151939.381000", "151939.384000", "151939.386000", "151939.389000", "151939.392000", "151939.394000", "151939.397000", "152019.330000", "152019.333000", "152019.336000", "152019.339000", "152019.341000", "152019.344000", "152019.346000", "152019.349000", "152019.352000", "152019.354000", "152019.357000", "152019.359000", "152019.362000", "152019.365000", "152019.367000", "152019.370000", "152019.372000", "152019.375000", "152019.386000", "152019.389000", "152059.331000", "152059.333000", "152059.336000", "152059.339000", "152059.341000", "152059.344000", "152059.347000", "152059.349000", "152059.352000", "152059.354000", "152059.357000", "152059.360000", "152059.362000", "152059.365000", "152059.367000", "152059.370000", "152059.373000", "152059.375000", "152059.378000", "152059.381000", "152139.330000", "152139.332000", "152139.341000", "152139.344000", "152139.346000", "152139.349000", "152139.352000", "152139.355000", "152139.357000", "152139.360000", "152139.363000", "152139.365000", "152139.368000", "152139.371000", "152139.373000", "152139.376000", "152139.378000", "152139.381000", "152139.384000", "152139.386000", "152219.329000", "152219.332000", "152219.335000", "152219.338000", "152219.340000", "152219.343000", "152219.346000", "152219.348000", "152219.351000", "152219.354000", "152219.356000", "152219.359000", "152219.362000", "152219.364000", "152219.367000", "152219.370000", "152219.372000", "152219.375000", "152219.377000", "152219.380000", "152259.330000", "152259.333000", "152259.336000", "152259.339000", "152259.341000", "152259.344000", "152259.347000", "152259.349000", "152259.352000", "152259.355000", "152259.357000", "152259.360000", "152259.362000", "152259.365000", "152259.368000", "152259.370000", "152259.373000", "152259.376000", "152259.378000", "152259.381000", "152339.330000", "152339.332000", "152339.335000", "152339.338000", "152339.340000", "152339.343000", "152339.346000", "152339.348000", "152339.351000", "152339.354000", "152339.356000", "152339.359000", "152339.361000", "152339.364000", "152339.367000", "152339.369000", "152339.372000", "152339.374000", "152339.377000", "152339.380000", "152419.330000", "152419.333000", "152419.335000", "152419.338000", "152419.340000", "152419.343000", "152419.346000", "152419.348000", "152419.351000", "152419.354000", "152419.356000", "152419.359000", "152419.361000", "152419.381000", "152419.384000", "152419.386000", "152419.389000", "152419.391000", "152419.394000", "152419.397000", "152459.330000", "152459.333000", "152459.336000", "152459.339000", "152459.341000", "152459.344000", "152459.347000", "152459.349000", "152459.352000", "152459.354000", "152459.357000", "152459.360000", "152459.362000", "152459.365000", "152459.368000", "152459.370000", "152459.373000", "152459.376000", "152459.378000", "152459.381000", "152539.330000", "152539.332000", "152539.335000", "152539.338000", "152539.340000", "152539.343000", "152539.346000", "152539.348000", "152539.351000", "152539.353000", "152539.356000", "152539.359000", "152539.361000", "152539.364000", "152539.367000", "152539.369000", "152539.372000", "152539.375000", "152539.377000", "152539.380000", "152619.329000", "152619.332000", "152619.335000", "152619.338000", "152619.340000", "152619.343000", "152619.346000", "152619.348000", "152619.351000", "152619.354000", "152619.356000", "152619.359000", "152619.361000", "152619.364000", "152619.367000", "152619.369000", "152619.372000", "152619.375000", "152619.377000", "152619.380000", "152659.329000", "152659.332000", "152659.335000", "152659.337000", "152659.340000", "152659.343000", "152659.346000", "152659.348000", "152659.351000", "152659.353000", "152659.356000", "152659.359000", "152659.361000", "152659.364000", "152659.367000", "152659.369000", "152659.372000", "152659.375000", "152659.377000", "152659.380000", "152739.331000", "152739.333000", "152739.336000", "152739.354000", "152739.357000", "152739.359000", "152739.362000", "152739.365000", "152739.367000", "152739.370000", "152739.372000", "152739.375000", "152739.378000", "152739.380000", "152739.383000", "152739.385000", "152739.388000", "152739.391000", "152739.393000", "152739.396000", "152819.330000", "152819.333000", "152819.335000", "152819.338000", "152819.341000", "152819.343000", "152819.346000", "152819.349000", "152819.351000", "152819.354000", "152819.356000", "152819.359000", "152819.362000", "152819.364000", "152819.367000", "152819.376000", "152819.379000", "152819.382000", "152819.384000", "152819.387000", "152859.330000", "152859.332000", "152859.335000", "152859.338000", "152859.340000", "152859.343000", "152859.346000", "152859.348000", "152859.351000", "152859.354000", "152859.356000", "152859.359000", "152859.362000", "152859.364000", "152859.367000", "152859.370000", "152859.372000", "152859.375000", "152859.377000", "152859.380000", "152922.554000", "152922.557000", "152922.560000", "152922.563000", "152922.566000", "152922.568000", "152922.571000", "152922.574000", "152922.576000", "152922.579000", "152922.582000", "152922.584000"],
      "InstanceNumber": [1, 2, 3, 4, 5, 6, 7, 8, 9, 10, 11, 12, 13, 14, 15, 16, 17, 18, 19, 20, 21, 22, 23, 24, 25, 26, 27, 28, 29, 30, 31, 32, 33, 34, 35, 36, 37, 38, 39, 40, 41, 42, 43, 44, 45, 46, 47, 48, 49, 50, 51, 52, 53, 54, 55, 56, 57, 58, 59, 60, 61, 62, 63, 64, 65, 66, 67, 68, 69, 70, 71, 72, 73, 74, 75, 76, 77, 78, 79, 80, 81, 82, 83, 84, 85, 86, 87, 88, 89, 90, 91, 92, 93, 94, 95, 96, 97, 98, 99, 100, 101, 102, 103, 104, 105, 106, 107, 108, 109, 110, 111, 112, 113, 114, 115, 116, 117, 118, 119, 120, 121, 122, 123, 124, 125, 126, 127, 128, 129, 130, 131, 132, 133, 134, 135, 136, 137, 138, 139, 140, 141, 142, 143, 144, 145, 146, 147, 148, 149, 150, 151, 152, 153, 154, 155, 156, 157, 158, 159, 160, 161, 162, 163, 164, 165, 166, 167, 168, 169, 170, 171, 172, 173, 174, 175, 176, 177, 178, 179, 180, 181, 182, 183, 184, 185, 186, 187, 188, 189, 190, 191, 192, 193, 194, 195, 196, 197, 198, 199, 200, 201, 202, 203, 204, 205, 206, 207, 208, 209, 210, 211, 212, 213, 214, 215, 216, 217, 218, 219, 220, 221, 222, 223, 224, 225, 226, 227, 228, 229, 230, 231, 232, 233, 234, 235, 236, 237, 238, 239, 240, 241, 242, 243, 244, 245, 246, 247, 248, 249, 250, 251, 252, 253, 254, 255, 256, 257, 258, 259, 260, 261, 262, 263, 264, 265, 266, 267, 268, 269, 270, 271, 272, 273, 274, 275, 276, 277, 278, 279, 280, 281, 282, 283, 284, 285, 286, 287, 288, 289, 290, 291, 292, 293, 294, 295, 296, 297, 298, 299, 300, 301, 302, 303, 304, 305, 306, 307, 308, 309, 310, 311, 312, 313, 314, 315, 316, 317, 318, 319, 320, 321, 322, 323, 324, 325, 326, 327, 328, 329, 330, 331, 332, 333, 334, 335, 336, 337, 338, 339, 340, 341],
      "LargestImagePixelValue": [1991, 2126, 1986, 1871, 2104, 1894, 2020, 2023, 1822, 2493, 1747, 2190, 2275, 1881, 2713, 1751, 2401, 1978, 1746, 1871, 2549, 1894, 1838, 2020, 1868, 1892, 2372, 2228, 2034, 2364, 2164, 1751, 1803, 2259, 1736, 1925, 2331, 1728, 1926, 2168, 2119, 1815, 1985, 2531, 1812, 1828, 2085, 2270, 1816, 2061, 2514, 1921, 1886, 1939, 1936, 2082, 1715, 2257, 1820, 2219, 1770, 2940, 1833, 2228, 1966, 1797, 2002, 1834, 1671, 2004, 1715, 2226, 1824, 2321, 1805, 2132, 1762, 1719, 2177, 2493, 2647, 1725, 2294, 2020, 2028, 2448, 1777, 1888, 2266, 1712, 1896, 2349, 1892, 1837, 1689, 1733, 1891, 1740, 2043, 1981, 1866, 1708, 2235, 1766, 2061, 1984, 2060, 2668, 2244, 1792, 2059, 2236, 1846, 1753, 1907, 2370, 1769, 1679, 1683, 1821, 1673, 1775, 2125, 2351, 2499, 2299, 1849, 2170, 1846, 2254, 1821, 1760, 2189, 1869, 1988, 2071, 1795, 2208, 2119, 1981, 2422, 2054, 1818, 2355, 2005, 1870, 1879, 1748, 2373, 2647, 2241, 1865, 1711, 2536, 2030, 1988, 1678, 2303, 2165, 1751, 1921, 1892, 2312, 1910, 1703, 2217, 1739, 2145, 2025, 2006, 2200, 1804, 2525, 2073, 2056, 2200, 2192, 1685, 2190, 1938, 1705, 1997, 2074, 1779, 2623, 1771, 2365, 1736, 1779, 2248, 1776, 2311, 2147, 1876, 2459, 2066, 1787, 2558, 1994, 1953, 2327, 1913, 2384, 1723, 2675, 2161, 1795, 1856, 1886, 1769, 2739, 2232, 1926, 1947, 1681, 1829, 1715, 1827, 1724, 2069, 2150, 2257, 2241, 2100, 1714, 1884, 1659, 1741, 2423, 2171, 1944, 1692, 2363, 1775, 2029, 2211, 1798, 1831, 2323, 2293, 2092, 1863, 2457, 1777, 1695, 1946, 1967, 2041, 2061, 2066, 1735, 2274, 1834, 2731, 1981, 2005, 2114, 1802, 2711, 2150, 1902, 2704, 1905, 2291, 2227, 2045, 2357, 1837, 2179, 1855, 1784, 1671, 2333, 1915, 2359, 2008, 2062, 1901, 1954, 1916, 2166, 2207, 2355, 1859, 1971, 2287, 1811, 1928, 1668, 2342, 2059, 1850, 1966, 1696, 2366, 1823, 2253, 2558, 2302, 2129, 1706, 2103, 1789, 2125, 2067, 2058, 1876, 1880, 1940, 2003, 1782, 2177, 1909, 2602, 2345, 2516, 1831, 2308, 1850, 2119, 2141, 2167, 1735, 2212, 2063, 1827, 2169, 1815, 2115, 2058, 1846, 2055, 1814, 2455, 1914, 2281, 1864, 2505, 1879, 1905, 2317],
