{
  "AcquisitionMatrixPE": 70,
  "AcquisitionNumber": 1,
  "AcquisitionTime": "14:36:22.295000",
  "BandwidthPerPixelPhaseEncode": 51.948,
  "BaseResolution": 70,
  "BodyPartExamined": "HEAD",
  "CoilCombinationMethod": "Sum of Squares",
  "ConsistencyInfo": "N4_VE11C_LATEST_20160120",
  "ConversionSoftware": "dcm2niix",
  "ConversionSoftwareVersion": "v1.0.20220720",
  "DerivedVendorReportedEchoSpacing": 0.000550001,
  "DeviceSerialNumber": "66061",
  "DwellTime": 3.3e-06,
  "EchoTime": 0.022,
  "EchoTrainLength": 35,
  "EffectiveEchoSpacing": 0.000275,
  "FlipAngle": 90,
  "HeudiconvVersion": "1.1.1",
  "ImageOrientationPatientDICOM": [0.999998, 0.00143989, 0.0012323, -0.00122174, 0.986846, -0.16166],
  "ImageOrientationText": "Tra>Cor(-9.3)>Sag(0.1)",
  "ImageType": [
    "ORIGINAL",
    "PRIMARY",
    "M",
    "ND",
    "NORM",
    "MOSAIC"
],
  "ImagingFrequency": 123.255,
  "InPlanePhaseEncodingDirectionDICOM": "COL",
  "InstitutionAddress": "Street StreetNo,City/1c4204/,District,KR,ZIP",
  "InstitutionName": "SKKU",
  "InstitutionalDepartmentName": "Department",
  "MRAcquisitionType": "2D",
  "MagneticFieldStrength": 3,
  "Manufacturer": "Siemens",
  "ManufacturersModelName": "Prisma",
  "MatrixCoilMode": "GRAPPA",
  "Modality": "MR",
  "NonlinearGradientCorrection": false,
  "ParallelReductionFactorInPlane": 2,
  "PartialFourier": 1,
  "PatientPosition": "HFS",
  "PercentPhaseFOV": 100,
  "PercentSampling": 100,
  "PhaseEncodingDirection": "j-",
  "PhaseEncodingSteps": 70,
  "PhaseResolution": 1,
  "PixelBandwidth": 2165,
  "ProcedureStepDescription": "Head^PI:Others",
  "ProtocolName": "BOLD_ep2d_3x3x3_dimension1",
  "PulseSequenceDetails": "%SiemensSeq%\\ep2d_pace",
  "ReceiveCoilActiveElements": "HC1-7",
  "ReceiveCoilName": "HeadNeck_64",
  "ReconMatrixPE": 70,
  "RefLinesPE": 24,
  "RepetitionTime": 2,
  "SAR": 0.143969,
  "ScanOptions": "FS",
  "ScanningSequence": "EP",
  "SequenceName": "*epfid2d1_70",
  "SequenceVariant": "SK",
  "SeriesDescription": "BOLD_ep2d_3x3x3_dimension1",
  "SeriesNumber": 4,
  "ShimSetting": [5043, 3717, 4418, 228, -25, -71, 30, 50],
  "SliceThickness": 3,
  "SliceTiming": [0.99, 0, 1.0375, 0.0475, 1.085, 0.095, 1.13, 0.1425, 1.1775, 0.1875, 1.225, 0.235, 1.2725, 0.2825, 1.32, 0.33, 1.3675, 0.3775, 1.415, 0.425, 1.46, 0.4725, 1.5075, 0.5175, 1.555, 0.565, 1.6025, 0.6125, 1.65, 0.66, 1.6975, 0.7075, 1.745, 0.755, 1.79, 0.8, 1.8375, 0.8475, 1.885, 0.895, 1.9325, 0.9425],
  "SoftwareVersions": "syngo MR E11",
  "SpacingBetweenSlices": 3,
  "StationName": "AWP66061",
  "TaskName": "dimension",
  "TotalReadoutTime": 0.018975,
  "TxRefAmp": 250.953,
  "dcmmeta_affine": [
    [-2.9999945163726807, -0.0036652132403105497, 0.004346585366874933, 108.7982406616211],
    [-0.004319668747484684, 2.9605371952056885, -0.4849744141101837, -92.98426818847656],
    [0.0036968979984521866, 0.4849798083305359, 2.9605371952056885, -64.57693481445312],
    [0.0, 0.0, 0.0, 1.0]
],
  "dcmmeta_reorient_transform": [
    [0.0, -1.0, 0.0, 69.0],
    [1.0, 0.0, 0.0, 0.0],
    [0.0, 0.0, -1.0, 41.0],
    [0.0, 0.0, 0.0, 1.0]
],
  "dcmmeta_shape": [70, 70, 42, 437],
  "dcmmeta_slice_dim": 2,
  "dcmmeta_version": 0.6,
  "global": {
    "const": {
      "AcquisitionMatrix": [70, 0, 0, 70],
      "AngioFlag": "N",
      "BitsAllocated": 16,
      "BitsStored": 12,
      "BodyPartExamined": "HEAD",
      "Columns": 490,
      "EchoNumbers": 1,
      "EchoTime": 22.0,
      "EchoTrainLength": 35,
      "FlipAngle": 90.0,
      "HighBit": 11,
      "ImageOrientationPatient": [0.99999820407652, 0.00143988963598, 0.00123229930086, -0.0012217377612, 0.98684576905799, -0.1616599376753],
      "ImagePositionPatient": [-737.95272634332, -714.02881984259, 191.33811181264],
      "ImageType": [
        "ORIGINAL",
        "PRIMARY",
        "M",
        "ND",
        "NORM",
        "MOSAIC"
],
      "ImagedNucleus": "1H",
      "ImagingFrequency": 123.254568,
      "InPlanePhaseEncodingDirection": "COL",
      "MRAcquisitionType": "2D",
      "MagneticFieldStrength": 3.0,
      "Manufacturer": "SIEMENS",
      "ManufacturerModelName": "Prisma",
      "Modality": "MR",
      "NumberOfAverages": 1.0,
      "NumberOfPhaseEncodingSteps": 70,
      "PercentPhaseFieldOfView": 100.0,
      "PercentSampling": 100.0,
      "PerformedProcedureStepStartTime": "141442.173000",
      "PhotometricInterpretation": "MONOCHROME2",
      "PixelBandwidth": 2165.0,
      "PixelRepresentation": 0,
      "PixelSpacing": [3.0, 3.0],
      "ProtocolName": "BOLD_ep2d_3x3x3_dimension1",
      "RepetitionTime": 2000.0,
      "Rows": 490,
      "SAR": 0.14396932600747,
      "SamplesPerPixel": 1,
      "ScanOptions": "FS",
      "ScanningSequence": "EP",
      "SequenceName": "*epfid2d1_70",
      "SequenceVariant": "SK",
      "SeriesDescription": "BOLD_ep2d_3x3x3_dimension1",
      "SeriesNumber": 4,
      "SeriesTime": "143712.011000",
      "SliceLocation": 74.461822912144,
      "SliceThickness": 3.0,
      "SmallestImagePixelValue": 0,
      "SoftwareVersions": "syngo MR E11",
      "SpacingBetweenSlices": 2.9999999694137,
      "SpecificCharacterSet": "ISO_IR 100",
      "StudyID": "1",
      "StudyTime": "141442.093000",
      "TransmitCoilName": "Body",
      "VariableFlipAngleFlag": "N",
      "WindowCenterWidthExplanation": "Algo1",
      "dBdt": 0.0},
    "slices": {}
  },
  "time": {
    "samples": {
      "AcquisitionNumber": [1, 2, 3, 4, 5, 6, 7, 8, 9, 10, 11, 12, 13, 14, 15, 16, 17, 18, 19, 20, 21, 22, 23, 24, 25, 26, 27, 28, 29, 30, 31, 32, 33, 34, 35, 36, 37, 38, 39, 40, 41, 42, 43, 44, 45, 46, 47, 48, 49, 50, 51, 52, 53, 54, 55, 56, 57, 58, 59, 60, 61, 62, 63, 64, 65, 66, 67, 68, 69, 70, 71, 72, 73, 74, 75, 76, 77, 78, 79, 80, 81, 82, 83, 84, 85, 86, 87, 88, 89, 90, 91, 92, 93, 94, 95, 96, 97, 98, 99, 100, 101, 102, 103, 104, 105, 106, 107, 108, 109, 110, 111, 112, 113, 114, 115, 116, 117, 118, 119, 120, 121, 122, 123, 124, 125, 126, 127, 128, 129, 130, 131, 132, 133, 134, 135, 136, 137, 138, 139, 140, 141, 142, 143, 144, 145, 146, 147, 148, 149, 150, 151, 152, 153, 154, 155, 156, 157, 158, 159, 160, 161, 162, 163, 164, 165, 166, 167, 168, 169, 170, 171, 172, 173, 174, 175, 176, 177, 178, 179, 180, 181, 182, 183, 184, 185, 186, 187, 188, 189, 190, 191, 192, 193, 194, 195, 196, 197, 198, 199, 200, 201, 202, 203, 204, 205, 206, 207, 208, 209, 210, 211, 212, 213, 214, 215, 216, 217, 218, 219, 220, 221, 222, 223, 224, 225, 226, 227, 228, 229, 230, 231, 232, 233, 234, 235, 236, 237, 238, 239, 240, 241, 242, 243, 244, 245, 246, 247, 248, 249, 250, 251, 252, 253, 254, 255, 256, 257, 258, 259, 260, 261, 262, 263, 264, 265, 266, 267, 268, 269, 270, 271, 272, 273, 274, 275, 276, 277, 278, 279, 280, 281, 282, 283, 284, 285, 286, 287, 288, 289, 290, 291, 292, 293, 294, 295, 296, 297, 298, 299, 300, 301, 302, 303, 304, 305, 306, 307, 308, 309, 310, 311, 312, 313, 314, 315, 316, 317, 318, 319, 320, 321, 322, 323, 324, 325, 326, 327, 328, 329, 330, 331, 332, 333, 334, 335, 336, 337, 338, 339, 340, 341, 342, 343, 344, 345, 346, 347, 348, 349, 350, 351, 352, 353, 354, 355, 356, 357, 358, 359, 360, 361, 362, 363, 364, 365, 366, 367, 368, 369, 370, 371, 372, 373, 374, 375, 376, 377, 378, 379, 380, 381, 382, 383, 384, 385, 386, 387, 388, 389, 390, 391, 392, 393, 394, 395, 396, 397, 398, 399, 400, 401, 402, 403, 404, 405, 406, 407, 408, 409, 410, 411, 412, 413, 414, 415, 416, 417, 418, 419, 420, 421, 422, 423, 424, 425, 426, 427, 428, 429, 430, 431, 432, 433, 434, 435, 436, 437],
      "AcquisitionTime": ["143622.295000", "143624.295000", "143626.295000", "143628.295000", "143630.295000", "143632.295000", "143634.295000", "143636.295000", "143638.295000", "143640.295000", "143642.295000", "143644.295000", "143646.295000", "143648.295000", "143650.295000", "143652.295000", "143654.295000", "143656.295000", "143658.295000", "143700.295000", "143702.295000", "143704.295000", "143706.295000", "143708.295000", "143710.295000", "143712.295000", "143714.295000", "143716.295000", "143718.295000", "143720.295000", "143722.295000", "143724.295000", "143726.295000", "143728.295000", "143730.295000", "143732.295000", "143734.295000", "143736.295000", "143738.295000", "143740.295000", "143742.295000", "143744.295000", "143746.295000", "143748.295000", "143750.295000", "143752.295000", "143754.295000", "143756.295000", "143758.295000", "143800.295000", "143802.295000", "143804.295000", "143806.295000", "143808.295000", "143810.295000", "143812.295000", "143814.295000", "143816.295000", "143818.295000", "143820.295000", "143822.295000", "143824.295000", "143826.295000", "143828.295000", "143830.295000", "143832.295000", "143834.295000", "143836.295000", "143838.295000", "143840.295000", "143842.295000", "143844.295000", "143846.295000", "143848.295000", "143850.295000", "143852.295000", "143854.295000", "143856.295000", "143858.295000", "143900.295000", "143902.295000", "143904.295000", "143906.295000", "143908.295000", "143910.295000", "143912.295000", "143914.295000", "143916.295000", "143918.295000", "143920.295000", "143922.295000", "143924.295000", "143926.295000", "143928.295000", "143930.295000", "143932.295000", "143934.295000", "143936.295000", "143938.295000", "143940.295000", "143942.295000", "143944.295000", "143946.295000", "143948.295000", "143950.295000", "143952.295000", "143954.295000", "143956.295000", "143958.295000", "144000.295000", "144002.295000", "144004.295000", "144006.295000", "144008.295000", "144010.295000", "144012.295000", "144014.295000", "144016.295000", "144018.295000", "144020.295000", "144022.295000", "144024.295000", "144026.295000", "144028.295000", "144030.295000", "144032.295000", "144034.295000", "144036.295000", "144038.295000", "144040.295000", "144042.295000", "144044.295000", "144046.295000", "144048.295000", "144050.295000", "144052.295000", "144054.295000", "144056.295000", "144058.295000", "144100.295000", "144102.295000", "144104.295000", "144106.295000", "144108.295000", "144110.295000", "144112.295000", "144114.295000", "144116.295000", "144118.295000", "144120.295000", "144122.295000", "144124.295000", "144126.295000", "144128.295000", "144130.295000", "144132.295000", "144134.295000", "144136.295000", "144138.295000", "144140.295000", "144142.295000", "144144.295000", "144146.295000", "144148.295000", "144150.295000", "144152.295000", "144154.295000", "144156.295000", "144158.295000", "144200.295000", "144202.295000", "144204.295000", "144206.295000", "144208.295000", "144210.295000", "144212.295000", "144214.295000", "144216.295000", "144218.295000", "144220.295000", "144222.295000", "144224.295000", "144226.295000", "144228.295000", "144230.295000", "144232.295000", "144234.295000", "144236.295000", "144238.295000", "144240.295000", "144242.295000", "144244.295000", "144246.295000", "144248.295000", "144250.295000", "144252.295000", "144254.295000", "144256.295000", "144258.295000", "144300.295000", "144302.295000", "144304.295000", "144306.295000", "144308.295000", "144310.295000", "144312.295000", "144314.295000", "144316.295000", "144318.295000", "144320.295000", "144322.295000", "144324.295000", "144326.295000", "144328.295000", "144330.295000", "144332.295000", "144334.295000", "144336.295000", "144338.295000", "144340.295000", "144342.295000", "144344.295000", "144346.295000", "144348.295000", "144350.295000", "144352.295000", "144354.295000", "144356.295000", "144358.295000", "144400.295000", "144402.295000", "144404.295000", "144406.295000", "144408.295000", "144410.295000", "144412.295000", "144414.295000", "144416.295000", "144418.295000", "144420.295000", "144422.295000", "144424.295000", "144426.295000", "144428.295000", "144430.295000", "144432.295000", "144434.295000", "144436.295000", "144438.295000", "144440.295000", "144442.295000", "144444.295000", "144446.295000", "144448.295000", "144450.295000", "144452.295000", "144454.295000", "144456.295000", "144458.295000", "144500.295000", "144502.295000", "144504.295000", "144506.295000", "144508.295000", "144510.295000", "144512.295000", "144514.295000", "144516.295000", "144518.295000", "144520.295000", "144522.295000", "144524.295000", "144526.295000", "144528.295000", "144530.295000", "144532.295000", "144534.295000", "144536.295000", "144538.295000", "144540.295000", "144542.295000", "144544.295000", "144546.295000", "144548.295000", "144550.295000", "144552.295000", "144554.295000", "144556.295000", "144558.295000", "144600.295000", "144602.295000", "144604.295000", "144606.295000", "144608.295000", "144610.295000", "144612.295000", "144614.295000", "144616.295000", "144618.295000", "144620.295000", "144622.295000", "144624.295000", "144626.295000", "144628.295000", "144630.295000", "144632.295000", "144634.295000", "144636.295000", "144638.295000", "144640.295000", "144642.295000", "144644.295000", "144646.295000", "144648.295000", "144650.295000", "144652.295000", "144654.295000", "144656.295000", "144658.295000", "144700.295000", "144702.295000", "144704.295000", "144706.295000", "144708.295000", "144710.295000", "144712.295000", "144714.295000", "144716.295000", "144718.295000", "144720.295000", "144722.295000", "144724.295000", "144726.295000", "144728.295000", "144730.295000", "144732.295000", "144734.295000", "144736.295000", "144738.295000", "144740.295000", "144742.295000", "144744.295000", "144746.295000", "144748.295000", "144750.295000", "144752.295000", "144754.295000", "144756.295000", "144758.295000", "144800.295000", "144802.295000", "144804.295000", "144806.295000", "144808.295000", "144810.295000", "144812.295000", "144814.295000", "144816.295000", "144818.295000", "144820.295000", "144822.295000", "144824.295000", "144826.295000", "144828.295000", "144830.295000", "144832.295000", "144834.295000", "144836.295000", "144838.295000", "144840.295000", "144842.295000", "144844.295000", "144846.295000", "144848.295000", "144850.295000", "144852.295000", "144854.295000", "144856.295000", "144858.295000", "144900.295000", "144902.295000", "144904.295000", "144906.295000", "144908.295000", "144910.295000", "144912.295000", "144914.295000", "144916.295000", "144918.295000", "144920.295000", "144922.295000", "144924.295000", "144926.295000", "144928.295000", "144930.295000", "144932.295000", "144934.295000", "144936.295000", "144938.295000", "144940.295000", "144942.295000", "144944.295000", "144946.295000", "144948.295000", "144950.295000", "144952.295000", "144954.295000", "144956.295000", "144958.295000", "145000.295000", "145002.295000", "145004.295000", "145006.295000", "145008.295000", "145010.295000", "145012.295000", "145014.295000", "145016.295000", "145018.295000", "145020.295000", "145022.295000", "145024.295000", "145026.295000", "145028.295000", "145030.295000", "145032.295000", "145034.295000", "145036.295000", "145038.295000", "145040.295000", "145042.295000", "145044.295000", "145046.295000", "145048.295000", "145050.295000", "145052.295000", "145054.295000"],
      "ContentTime": ["143712.014000", "143712.018000", "143712.021000", "143712.024000", "143712.026000", "143712.029000", "143712.032000", "143712.035000", "143712.037000", "143712.040000", "143712.043000", "143712.046000", "143712.048000", "143712.051000", "143712.054000", "143712.057000", "143712.059000", "143712.062000", "143712.065000", "143712.075000", "143712.078000", "143712.081000", "143712.084000", "143712.086000", "143732.010000", "143732.013000", "143732.015000", "143732.018000", "143732.021000", "143732.024000", "143732.026000", "143732.029000", "143732.032000", "143732.035000", "143812.009000", "143812.012000", "143812.014000", "143812.017000", "143812.020000", "143812.023000", "143812.025000", "143812.028000", "143812.031000", "143812.034000", "143812.037000", "143812.039000", "143812.042000", "143812.045000", "143812.047000", "143812.050000", "143812.053000", "143812.056000", "143812.059000", "143812.062000", "143852.010000", "143852.013000", "143852.015000", "143852.018000", "143852.021000", "143852.024000", "143852.027000", "143852.029000", "143852.032000", "143852.039000", "143852.042000", "143852.045000", "143852.047000", "143852.050000", "143852.053000", "143852.056000", "143852.058000", "143852.061000", "143852.064000", "143852.067000", "143932.010000", "143932.013000", "143932.016000", "143932.018000", "143932.021000", "143932.024000", "143932.027000", "143932.029000", "143932.032000", "143932.035000", "143932.038000", "143932.040000", "143932.043000", "143932.046000", "143932.049000", "143932.057000", "143932.060000", "143932.063000", "143932.066000", "143932.068000", "144012.010000", "144012.012000", "144012.015000", "144012.018000", "144012.021000", "144012.024000", "144012.026000", "144012.029000", "144012.032000", "144012.035000", "144012.037000", "144012.040000", "144012.043000", "144012.046000", "144012.048000", "144012.051000", "144012.054000", "144012.057000", "144012.059000", "144012.062000", "144052.010000", "144052.014000", "144052.017000", "144052.020000", "144052.024000", "144052.027000", "144052.031000", "144052.034000", "144052.038000", "144052.041000", "144052.044000", "144052.048000", "144052.051000", "144052.055000", "144052.058000", "144052.061000", "144052.065000", "144052.068000", "144052.071000", "144052.074000", "144132.010000", "144132.013000", "144132.034000", "144132.037000", "144132.039000", "144132.042000", "144132.045000", "144132.048000", "144132.050000", "144132.053000", "144132.056000", "144132.059000", "144132.061000", "144132.064000", "144132.067000", "144132.070000", "144132.072000", "144132.075000", "144132.078000", "144132.081000", "144212.010000", "144212.013000", "144212.015000", "144212.018000", "144212.021000", "144212.024000", "144212.027000", "144212.029000", "144212.032000", "144212.035000", "144212.038000", "144212.041000", "144212.044000", "144212.046000", "144212.049000", "144212.052000", "144212.055000", "144212.058000", "144212.060000", "144212.063000", "144252.009000", "144252.012000", "144252.014000", "144252.017000", "144252.020000", "144252.023000", "144252.026000", "144252.028000", "144252.031000", "144252.034000", "144252.037000", "144252.040000", "144252.042000", "144252.045000", "144252.048000", "144252.051000", "144252.054000", "144252.056000", "144252.059000", "144252.062000", "144332.010000", "144332.013000", "144332.015000", "144332.018000", "144332.021000", "144332.024000", "144332.026000", "144332.029000", "144332.032000", "144332.035000", "144332.037000", "144332.040000", "144332.043000", "144332.046000", "144332.048000", "144332.051000", "144332.054000", "144332.057000", "144332.060000", "144332.062000", "144412.010000", "144412.013000", "144412.015000", "144412.018000", "144412.021000", "144412.024000", "144412.027000", "144412.030000", "144412.032000", "144412.035000", "144412.038000", "144412.041000", "144412.043000", "144412.046000", "144412.049000", "144412.052000", "144412.054000", "144412.057000", "144412.060000", "144412.063000", "144452.010000", "144452.013000", "144452.015000", "144452.018000", "144452.021000", "144452.024000", "144452.027000", "144452.030000", "144452.033000", "144452.035000", "144452.038000", "144452.041000", "144452.044000", "144452.047000", "144452.049000", "144452.052000", "144452.055000", "144452.058000", "144452.060000", "144452.063000", "144532.010000", "144532.013000", "144532.016000", "144532.018000", "144532.021000", "144532.024000", "144532.027000", "144532.029000", "144532.032000", "144532.035000", "144532.046000", "144532.049000", "144532.051000", "144532.054000", "144532.057000", "144532.060000", "144532.063000", "144532.065000", "144532.068000", "144532.071000", "144612.010000", "144612.013000", "144612.015000", "144612.018000", "144612.021000", "144612.024000", "144612.027000", "144612.029000", "144612.032000", "144612.035000", "144612.038000", "144612.040000", "144612.043000", "144612.046000", "144612.049000", "144612.052000", "144612.055000", "144612.057000", "144612.060000", "144612.063000", "144652.010000", "144652.013000", "144652.016000", "144652.019000", "144652.021000", "144652.024000", "144652.027000", "144652.030000", "144652.033000", "144652.035000", "144652.038000", "144652.041000", "144652.044000", "144652.046000", "144652.049000", "144652.052000", "144652.055000", "144652.057000", "144652.060000", "144652.063000", "144732.009000", "144732.012000", "144732.014000", "144732.017000", "144732.020000", "144732.023000", "144732.026000", "144732.028000", "144732.031000", "144732.034000", "144732.037000", "144732.040000", "144732.042000", "144732.046000", "144732.049000", "144732.052000", "144732.054000", "144732.057000", "144732.060000", "144732.063000", "144812.010000", "144812.013000", "144812.016000", "144812.018000", "144812.021000", "144812.024000", "144812.027000", "144812.029000", "144812.032000", "144812.035000", "144812.038000", "144812.041000", "144812.043000", "144812.046000", "144812.049000", "144812.052000", "144812.054000", "144812.057000", "144812.060000", "144812.063000", "144852.010000", "144852.013000", "144852.016000", "144852.030000", "144852.033000", "144852.035000", "144852.038000", "144852.041000", "144852.044000", "144852.046000", "144852.049000", "144852.052000", "144852.055000", "144852.057000", "144852.060000", "144852.063000", "144852.066000", "144852.069000", "144852.072000", "144852.075000", "144932.010000", "144932.013000", "144932.016000", "144932.018000", "144932.021000", "144932.024000", "144932.027000", "144932.029000", "144932.032000", "144932.035000", "144932.038000", "144932.040000", "144932.043000", "144932.046000", "144932.049000", "144932.051000", "144932.054000", "144932.057000", "144932.060000", "144932.063000", "145012.010000", "145012.013000", "145012.016000", "145012.018000", "145012.021000", "145012.024000", "145012.027000", "145012.029000", "145012.032000", "145012.035000", "145012.038000", "145012.041000", "145012.043000", "145012.046000", "145012.049000", "145012.052000", "145012.054000", "145012.057000", "145012.060000", "145012.063000", "145052.010000", "145052.018000", "145052.021000", "145052.024000", "145052.026000", "145052.029000", "145052.032000", "145052.035000", "145052.038000", "145052.040000", "145052.043000", "145052.046000", "145052.049000", "145052.051000", "145052.054000", "145052.057000", "145052.060000", "145052.062000", "145052.065000", "145052.068000", "145056.271000", "145056.275000", "145056.277000"],
      "DataSetTrailingPadding": [
        "\u0000\u0000\u0000\u0000\u0000\u0000\u0000\u0000\u0000\u0000\u0000\u0000\u0000\u0000\u0000\u0000\u0000\u0000\u0000\u0000\u0000\u0000\u0000\u0000\u0000\u0000\u0000\u0000\u0000\u0000\u0000\u0000\u0000\u0000\u0000\u0000\u0000\u0000\u0000\u0000\u0000\u0000\u0000\u0000\u0000\u0000\u0000\u0000\u0000\u0000\u0000\u0000\u0000\u0000\u0000\u0000\u0000\u0000\u0000\u0000\u0000\u0000\u0000\u0000\u0000\u0000\u0000\u0000\u0000\u0000\u0000\u0000\u0000\u0000\u0000\u0000\u0000\u0000\u0000\u0000\u0000\u0000\u0000\u0000\u0000\u0000\u0000\u0000\u0000\u0000\u0000\u0000\u0000\u0000\u0000\u0000\u0000\u0000\u0000\u0000\u0000\u0000\u0000\u0000\u0000\u0000\u0000\u0000\u0000\u0000\u0000\u0000\u0000\u0000\u0000\u0000\u0000\u0000\u0000\u0000\u0000\u0000\u0000\u0000\u0000\u0000\u0000\u0000\u0000\u0000\u0000\u0000\u0000\u0000\u0000\u0000\u0000\u0000\u0000\u0000\u0000\u0000\u0000\u0000\u0000\u0000\u0000\u0000\u0000\u0000\u0000\u0000\u0000\u0000\u0000\u0000\u0000\u0000\u0000\u0000\u0000\u0000\u0000\u0000\u0000\u0000\u0000\u0000\u0000\u0000\u0000\u0000\u0000\u0000\u0000\u0000\u0000\u0000\u0000\u0000\u0000\u0000\u0000\u0000\u0000\u0000\u0000\u0000\u0000\u0000\u0000\u0000\u0000\u0000\u0000\u0000\u0000\u0000\u0000\u0000\u0000\u0000\u0000\u0000\u0000\u0000\u0000\u0000\u0000\u0000\u0000\u0000\u0000\u0000\u0000\u0000\u0000\u0000\u0000\u0000\u0000\u0000\u0000\u0000\u0000\u0000\u0000\u0000\u0000\u0000\u0000\u0000\u0000\u0000\u0000\u0000\u0000\u0000\u0000\u0000\u0000\u0000\u0000\u0000\u0000\u0000\u0000\u0000\u0000\u0000\u0000\u0000\u0000\u0000\u0000\u0000\u0000\u0000\u0000\u0000\u0000\u0000\u0000\u0000\u0000\u0000\u0000\u0000\u0000\u0000\u0000\u0000\u0000\u0000\u0000\u0000\u0000\u0000\u0000\u0000\u0000\u0000\u0000\u0000",
        "\u0000\u0000\u0000\u0000\u0000\u0000\u0000\u0000\u0000\u0000\u0000\u0000\u0000\u0000\u0000\u0000\u0000\u0000\u0000\u0000\u0000\u0000\u0000\u0000\u0000\u0000\u0000\u0000\u0000\u0000\u0000\u0000\u0000\u0000\u0000\u0000\u0000\u0000\u0000\u0000\u0000\u0000\u0000\u0000\u0000\u0000\u0000\u0000\u0000\u0000\u0000\u0000\u0000\u0000\u0000\u0000\u0000\u0000\u0000\u0000\u0000\u0000\u0000\u0000\u0000\u0000\u0000\u0000\u0000\u0000\u0000\u0000\u0000\u0000\u0000\u0000\u0000\u0000\u0000\u0000\u0000\u0000\u0000\u0000\u0000\u0000\u0000\u0000\u0000\u0000\u0000\u0000\u0000\u0000\u0000\u0000\u0000\u0000\u0000\u0000\u0000\u0000\u0000\u0000\u0000\u0000\u0000\u0000\u0000\u0000\u0000\u0000\u0000\u0000\u0000\u0000\u0000\u0000\u0000\u0000\u0000\u0000\u0000\u0000\u0000\u0000\u0000\u0000\u0000\u0000\u0000\u0000\u0000\u0000\u0000\u0000\u0000\u0000\u0000\u0000\u0000\u0000\u0000\u0000\u0000\u0000\u0000\u0000\u0000\u0000\u0000\u0000\u0000\u0000\u0000\u0000\u0000\u0000\u0000\u0000\u0000\u0000\u0000\u0000\u0000\u0000\u0000\u0000\u0000\u0000\u0000\u0000\u0000\u0000\u0000\u0000\u0000\u0000\u0000\u0000\u0000\u0000\u0000\u0000\u0000\u0000\u0000\u0000\u0000\u0000\u0000\u0000\u0000\u0000\u0000\u0000\u0000\u0000\u0000\u0000\u0000\u0000\u0000\u0000\u0000\u0000\u0000\u0000\u0000\u0000\u0000\u0000\u0000\u0000\u0000\u0000\u0000\u0000\u0000\u0000\u0000\u0000\u0000\u0000\u0000\u0000\u0000\u0000\u0000\u0000\u0000\u0000\u0000\u0000\u0000\u0000\u0000\u0000\u0000\u0000\u0000\u0000\u0000\u0000\u0000\u0000\u0000\u0000\u0000\u0000\u0000\u0000\u0000\u0000\u0000\u0000\u0000\u0000\u0000\u0000\u0000\u0000\u0000\u0000\u0000\u0000\u0000\u0000\u0000\u0000\u0000\u0000\u0000\u0000\u0000\u0000\u0000\u0000\u0000\u0000\u0000\u0000\u0000\u0000",
        "\u0000\u0000\u0000\u0000\u0000\u0000\u0000\u0000\u0000\u0000\u0000\u0000\u0000\u0000\u0000\u0000\u0000\u0000\u0000\u0000\u0000\u0000\u0000\u0000\u0000\u0000\u0000\u0000\u0000\u0000\u0000\u0000\u0000\u0000\u0000\u0000\u0000\u0000\u0000\u0000\u0000\u0000\u0000\u0000\u0000\u0000\u0000\u0000\u0000\u0000\u0000\u0000\u0000\u0000\u0000\u0000\u0000\u0000\u0000\u0000\u0000\u0000\u0000\u0000\u0000\u0000\u0000\u0000\u0000\u0000\u0000\u0000\u0000\u0000\u0000\u0000\u0000\u0000\u0000\u0000\u0000\u0000\u0000\u0000\u0000\u0000\u0000\u0000\u0000\u0000\u0000\u0000\u0000\u0000\u0000\u0000\u0000\u0000\u0000\u0000\u0000\u0000\u0000\u0000\u0000\u0000\u0000\u0000\u0000\u0000\u0000\u0000\u0000\u0000\u0000\u0000\u0000\u0000\u0000\u0000\u0000\u0000\u0000\u0000\u0000\u0000\u0000\u0000\u0000\u0000\u0000\u0000\u0000\u0000\u0000\u0000\u0000\u0000\u0000\u0000\u0000\u0000\u0000\u0000\u0000\u0000\u0000\u0000\u0000\u0000\u0000\u0000\u0000\u0000\u0000\u0000\u0000\u0000\u0000\u0000\u0000\u0000\u0000\u0000\u0000\u0000\u0000\u0000\u0000\u0000\u0000\u0000\u0000\u0000\u0000\u0000\u0000\u0000\u0000\u0000\u0000\u0000\u0000\u0000\u0000\u0000\u0000\u0000\u0000\u0000\u0000\u0000\u0000\u0000\u0000\u0000\u0000\u0000\u0000\u0000\u0000\u0000\u0000\u0000\u0000\u0000\u0000\u0000\u0000\u0000\u0000\u0000\u0000\u0000\u0000\u0000\u0000\u0000\u0000\u0000\u0000\u0000\u0000\u0000\u0000\u0000\u0000\u0000\u0000\u0000\u0000\u0000\u0000\u0000\u0000\u0000\u0000\u0000\u0000\u0000\u0000\u0000\u0000\u0000\u0000\u0000\u0000\u0000\u0000\u0000\u0000\u0000\u0000\u0000\u0000\u0000\u0000\u0000\u0000\u0000\u0000\u0000\u0000\u0000\u0000\u0000\u0000\u0000\u0000\u0000\u0000\u0000\u0000\u0000\u0000\u0000\u0000\u0000\u0000\u0000\u0000\u0000\u0000\u0000",
        "\u0000\u0000\u0000\u0000\u0000\u0000\u0000\u0000\u0000\u0000\u0000\u0000\u0000\u0000\u0000\u0000\u0000\u0000\u0000\u0000\u0000\u0000\u0000\u0000\u0000\u0000\u0000\u0000\u0000\u0000\u0000\u0000\u0000\u0000\u0000\u0000\u0000\u0000\u0000\u0000\u0000\u0000\u0000\u0000\u0000\u0000\u0000\u0000\u0000\u0000\u0000\u0000\u0000\u0000\u0000\u0000\u0000\u0000\u0000\u0000\u0000\u0000\u0000\u0000\u0000\u0000\u0000\u0000\u0000\u0000\u0000\u0000\u0000\u0000\u0000\u0000\u0000\u0000\u0000\u0000\u0000\u0000\u0000\u0000\u0000\u0000\u0000\u0000\u0000\u0000\u0000\u0000\u0000\u0000\u0000\u0000\u0000\u0000\u0000\u0000\u0000\u0000\u0000\u0000\u0000\u0000\u0000\u0000\u0000\u0000\u0000\u0000\u0000\u0000\u0000\u0000\u0000\u0000\u0000\u0000\u0000\u0000\u0000\u0000\u0000\u0000\u0000\u0000\u0000\u0000\u0000\u0000\u0000\u0000\u0000\u0000\u0000\u0000\u0000\u0000\u0000\u0000\u0000\u0000\u0000\u0000\u0000\u0000\u0000\u0000\u0000\u0000\u0000\u0000\u0000\u0000\u0000\u0000\u0000\u0000\u0000\u0000\u0000\u0000\u0000\u0000\u0000\u0000\u0000\u0000\u0000\u0000\u0000\u0000\u0000\u0000\u0000\u0000\u0000\u0000\u0000\u0000\u0000\u0000\u0000\u0000\u0000\u0000\u0000\u0000\u0000\u0000\u0000\u0000\u0000\u0000\u0000\u0000\u0000\u0000\u0000\u0000\u0000\u0000\u0000\u0000\u0000\u0000\u0000\u0000\u0000\u0000\u0000\u0000\u0000\u0000\u0000\u0000\u0000\u0000\u0000\u0000\u0000\u0000\u0000\u0000\u0000\u0000\u0000\u0000\u0000\u0000\u0000\u0000\u0000\u0000\u0000\u0000\u0000\u0000\u0000\u0000\u0000\u0000\u0000\u0000\u0000\u0000\u0000\u0000\u0000\u0000\u0000\u0000\u0000\u0000\u0000\u0000\u0000\u0000\u0000\u0000\u0000\u0000\u0000\u0000\u0000\u0000\u0000\u0000\u0000\u0000\u0000\u0000\u0000\u0000\u0000\u0000\u0000\u0000\u0000\u0000\u0000\u0000",
