{
  "AcquisitionMatrixPE": 70,
  "AcquisitionNumber": 1,
  "AcquisitionTime": "14:03:17.770000",
  "BandwidthPerPixelPhaseEncode": 51.948,
  "BaseResolution": 70,
  "BodyPartExamined": "HEAD",
  "CoilCombinationMethod": "Sum of Squares",
  "ConsistencyInfo": "N4_VE11C_LATEST_20160120",
  "ConversionSoftware": "dcm2niix",
  "ConversionSoftwareVersion": "v1.0.20220720",
  "DerivedVendorReportedEchoSpacing": 0.000550001,
  "DeviceSerialNumber": "66061",
  "DwellTime": 3.3e-06,
  "EchoTime": 0.022,
  "EchoTrainLength": 35,
  "EffectiveEchoSpacing": 0.000275,
  "FlipAngle": 90,
  "HeudiconvVersion": "1.1.1",
  "ImageOrientationPatientDICOM": [0.999962, 0.00277875, 0.00820649, -0.00122164, 0.982931, -0.183968],
  "ImageOrientationText": "Tra>Cor(-10.6)>Sag(0.5)",
  "ImageType": [
    "ORIGINAL",
    "PRIMARY",
    "M",
    "ND",
    "NORM",
    "MOSAIC"
],
  "ImagingFrequency": 123.255,
  "InPlanePhaseEncodingDirectionDICOM": "COL",
  "InstitutionAddress": "Street StreetNo,City/1c4204/,District,KR,ZIP",
  "InstitutionName": "SKKU",
  "InstitutionalDepartmentName": "Department",
  "MRAcquisitionType": "2D",
  "MagneticFieldStrength": 3,
  "Manufacturer": "Siemens",
  "ManufacturersModelName": "Prisma",
  "MatrixCoilMode": "GRAPPA",
  "Modality": "MR",
  "NonlinearGradientCorrection": false,
  "ParallelReductionFactorInPlane": 2,
  "PartialFourier": 1,
  "PatientPosition": "HFS",
  "PercentPhaseFOV": 100,
  "PercentSampling": 100,
  "PhaseEncodingDirection": "j-",
  "PhaseEncodingSteps": 70,
  "PhaseResolution": 1,
  "PixelBandwidth": 2165,
  "ProcedureStepDescription": "Head^PI:Others",
  "ProtocolName": "BOLD_ep2d_3x3x3_response2",
  "PulseSequenceDetails": "%SiemensSeq%\\ep2d_pace",
  "ReceiveCoilActiveElements": "HC1-7",
  "ReceiveCoilName": "HeadNeck_64",
  "ReconMatrixPE": 70,
  "RefLinesPE": 24,
  "RepetitionTime": 2,
  "SAR": 0.130313,
  "ScanOptions": "FS",
  "ScanningSequence": "EP",
  "SequenceName": "*epfid2d1_70",
  "SequenceVariant": "SK",
  "SeriesDescription": "BOLD_ep2d_3x3x3_response2",
  "SeriesNumber": 15,
  "ShimSetting": [5035, 3755, 4414, 400, -85, -107, -102, 51],
  "SliceThickness": 3,
  "SliceTiming": [0.99, 0, 1.0375, 0.0475, 1.085, 0.095, 1.1325, 0.1425, 1.18, 0.19, 1.225, 0.235, 1.2725, 0.2825, 1.32, 0.33, 1.3675, 0.3775, 1.415, 0.425, 1.4625, 0.4725, 1.51, 0.52, 1.555, 0.565, 1.6025, 0.6125, 1.65, 0.66, 1.6975, 0.7075, 1.745, 0.755, 1.7925, 0.8025, 1.84, 0.85, 1.885, 0.895, 1.9325, 0.9425],
  "SoftwareVersions": "syngo MR E11",
  "SpacingBetweenSlices": 3,
  "StationName": "AWP66061",
  "TaskName": "response",
  "TotalReadoutTime": 0.018975,
  "TxRefAmp": 241.815,
  "dcmmeta_affine": [
    [-2.999887466430664, -0.003664909629151225, 0.025732850655913353, 109.5219497680664],
    [-0.008336259983479977, 2.948794364929199, -0.5518540143966675, -88.04600524902344],
    [0.024619461968541145, 0.5519048571586609, 2.9486937522888184, -60.71314239501953],
    [0.0, 0.0, 0.0, 1.0]
],
  "dcmmeta_reorient_transform": [
    [0.0, -1.0, 0.0, 69.0],
    [1.0, 0.0, 0.0, 0.0],
    [0.0, 0.0, -1.0, 41.0],
    [0.0, 0.0, 0.0, 1.0]
],
  "dcmmeta_shape": [70, 70, 42, 341],
  "dcmmeta_slice_dim": 2,
  "dcmmeta_version": 0.6,
  "global": {
    "const": {
      "AcquisitionMatrix": [70, 0, 0, 70],
      "AngioFlag": "N",
      "BitsAllocated": 16,
      "BitsStored": 12,
      "BodyPartExamined": "HEAD",
      "Columns": 490,
      "EchoNumbers": 1,
      "EchoTime": 22.0,
      "EchoTrainLength": 35,
      "FlipAngle": 90.0,
      "HighBit": 11,
      "ImageOrientationPatient": [0.99996246534216, 0.00277875342488, 0.00820648744745, -0.0012216365284, 0.98293142161815, -0.1839682798743],
      "ImagePositionPatient": [-739.53084090798, -713.79219044862, 208.99466322231],
      "ImageType": [
        "ORIGINAL",
        "PRIMARY",
        "M",
        "ND",
        "NORM",
        "MOSAIC"
],
      "ImagedNucleus": "1H",
      "ImagingFrequency": 123.254634,
      "InPlanePhaseEncodingDirection": "COL",
      "MRAcquisitionType": "2D",
      "MagneticFieldStrength": 3.0,
      "Manufacturer": "SIEMENS",
      "ManufacturerModelName": "Prisma",
      "Modality": "MR",
      "NumberOfAverages": 1.0,
      "NumberOfPhaseEncodingSteps": 70,
      "PercentPhaseFieldOfView": 100.0,
      "PercentSampling": 100.0,
      "PerformedProcedureStepStartTime": "124455.403000",
      "PhotometricInterpretation": "MONOCHROME2",
      "PixelBandwidth": 2165.0,
      "PixelRepresentation": 0,
      "PixelSpacing": [3.0, 3.0],
      "ProtocolName": "BOLD_ep2d_3x3x3_response2",
      "RepetitionTime": 2000.0,
      "Rows": 490,
      "SAR": 0.13031294968848,
      "SamplesPerPixel": 1,
      "ScanOptions": "FS",
      "ScanningSequence": "EP",
      "SequenceName": "*epfid2d1_70",
      "SequenceVariant": "SK",
      "SeriesDescription": "BOLD_ep2d_3x3x3_response2",
      "SeriesNumber": 15,
      "SeriesTime": "140402.708000",
      "SliceLocation": 80.46079586925,
      "SliceThickness": 3.0,
      "SmallestImagePixelValue": 0,
      "SoftwareVersions": "syngo MR E11",
      "SpacingBetweenSlices": 2.9999999501522,
      "SpecificCharacterSet": "ISO_IR 100",
      "StudyID": "1",
      "StudyTime": "124455.324000",
      "TransmitCoilName": "Body",
      "VariableFlipAngleFlag": "N",
      "WindowCenterWidthExplanation": "Algo1",
      "dBdt": 0.0},
    "slices": {}
  },
  "time": {
    "samples": {
      "AcquisitionNumber": [1, 2, 3, 4, 5, 6, 7, 8, 9, 10, 11, 12, 13, 14, 15, 16, 17, 18, 19, 20, 21, 22, 23, 24, 25, 26, 27, 28, 29, 30, 31, 32, 33, 34, 35, 36, 37, 38, 39, 40, 41, 42, 43, 44, 45, 46, 47, 48, 49, 50, 51, 52, 53, 54, 55, 56, 57, 58, 59, 60, 61, 62, 63, 64, 65, 66, 67, 68, 69, 70, 71, 72, 73, 74, 75, 76, 77, 78, 79, 80, 81, 82, 83, 84, 85, 86, 87, 88, 89, 90, 91, 92, 93, 94, 95, 96, 97, 98, 99, 100, 101, 102, 103, 104, 105, 106, 107, 108, 109, 110, 111, 112, 113, 114, 115, 116, 117, 118, 119, 120, 121, 122, 123, 124, 125, 126, 127, 128, 129, 130, 131, 132, 133, 134, 135, 136, 137, 138, 139, 140, 141, 142, 143, 144, 145, 146, 147, 148, 149, 150, 151, 152, 153, 154, 155, 156, 157, 158, 159, 160, 161, 162, 163, 164, 165, 166, 167, 168, 169, 170, 171, 172, 173, 174, 175, 176, 177, 178, 179, 180, 181, 182, 183, 184, 185, 186, 187, 188, 189, 190, 191, 192, 193, 194, 195, 196, 197, 198, 199, 200, 201, 202, 203, 204, 205, 206, 207, 208, 209, 210, 211, 212, 213, 214, 215, 216, 217, 218, 219, 220, 221, 222, 223, 224, 225, 226, 227, 228, 229, 230, 231, 232, 233, 234, 235, 236, 237, 238, 239, 240, 241, 242, 243, 244, 245, 246, 247, 248, 249, 250, 251, 252, 253, 254, 255, 256, 257, 258, 259, 260, 261, 262, 263, 264, 265, 266, 267, 268, 269, 270, 271, 272, 273, 274, 275, 276, 277, 278, 279, 280, 281, 282, 283, 284, 285, 286, 287, 288, 289, 290, 291, 292, 293, 294, 295, 296, 297, 298, 299, 300, 301, 302, 303, 304, 305, 306, 307, 308, 309, 310, 311, 312, 313, 314, 315, 316, 317, 318, 319, 320, 321, 322, 323, 324, 325, 326, 327, 328, 329, 330, 331, 332, 333, 334, 335, 336, 337, 338, 339, 340, 341],
      "AcquisitionTime": ["140317.770000", "140319.770000", "140321.770000", "140323.770000", "140325.770000", "140327.770000", "140329.770000", "140331.770000", "140333.770000", "140335.770000", "140337.770000", "140339.770000", "140341.770000", "140343.770000", "140345.770000", "140347.770000", "140349.770000", "140351.770000", "140353.770000", "140355.770000", "140357.770000", "140359.770000", "140401.770000", "140403.770000", "140405.770000", "140407.770000", "140409.770000", "140411.770000", "140413.770000", "140415.770000", "140417.770000", "140419.770000", "140421.770000", "140423.770000", "140425.770000", "140427.770000", "140429.770000", "140431.770000", "140433.770000", "140435.770000", "140437.770000", "140439.770000", "140441.770000", "140443.770000", "140445.770000", "140447.770000", "140449.770000", "140451.770000", "140453.770000", "140455.770000", "140457.770000", "140459.770000", "140501.770000", "140503.770000", "140505.770000", "140507.770000", "140509.770000", "140511.770000", "140513.770000", "140515.770000", "140517.770000", "140519.770000", "140521.770000", "140523.770000", "140525.770000", "140527.770000", "140529.770000", "140531.770000", "140533.770000", "140535.770000", "140537.770000", "140539.770000", "140541.770000", "140543.770000", "140545.770000", "140547.770000", "140549.770000", "140551.770000", "140553.770000", "140555.770000", "140557.770000", "140559.770000", "140601.770000", "140603.770000", "140605.770000", "140607.770000", "140609.770000", "140611.770000", "140613.770000", "140615.770000", "140617.770000", "140619.770000", "140621.770000", "140623.770000", "140625.770000", "140627.770000", "140629.770000", "140631.770000", "140633.770000", "140635.770000", "140637.770000", "140639.770000", "140641.770000", "140643.770000", "140645.770000", "140647.770000", "140649.770000", "140651.770000", "140653.770000", "140655.770000", "140657.770000", "140659.770000", "140701.770000", "140703.770000", "140705.770000", "140707.770000", "140709.770000", "140711.770000", "140713.770000", "140715.770000", "140717.770000", "140719.770000", "140721.770000", "140723.770000", "140725.770000", "140727.770000", "140729.770000", "140731.770000", "140733.770000", "140735.770000", "140737.770000", "140739.770000", "140741.770000", "140743.770000", "140745.770000", "140747.770000", "140749.770000", "140751.770000", "140753.770000", "140755.770000", "140757.770000", "140759.770000", "140801.770000", "140803.770000", "140805.770000", "140807.770000", "140809.770000", "140811.770000", "140813.770000", "140815.770000", "140817.770000", "140819.770000", "140821.770000", "140823.770000", "140825.770000", "140827.770000", "140829.770000", "140831.770000", "140833.770000", "140835.770000", "140837.770000", "140839.770000", "140841.770000", "140843.770000", "140845.770000", "140847.770000", "140849.770000", "140851.770000", "140853.770000", "140855.770000", "140857.770000", "140859.770000", "140901.770000", "140903.770000", "140905.770000", "140907.770000", "140909.770000", "140911.770000", "140913.770000", "140915.770000", "140917.770000", "140919.770000", "140921.770000", "140923.770000", "140925.770000", "140927.770000", "140929.770000", "140931.770000", "140933.770000", "140935.770000", "140937.770000", "140939.770000", "140941.770000", "140943.770000", "140945.770000", "140947.770000", "140949.770000", "140951.770000", "140953.770000", "140955.770000", "140957.770000", "140959.770000", "141001.770000", "141003.770000", "141005.770000", "141007.770000", "141009.770000", "141011.770000", "141013.770000", "141015.770000", "141017.770000", "141019.770000", "141021.770000", "141023.770000", "141025.770000", "141027.770000", "141029.770000", "141031.770000", "141033.770000", "141035.770000", "141037.770000", "141039.770000", "141041.770000", "141043.770000", "141045.770000", "141047.770000", "141049.770000", "141051.770000", "141053.770000", "141055.770000", "141057.770000", "141059.770000", "141101.770000", "141103.770000", "141105.770000", "141107.770000", "141109.770000", "141111.770000", "141113.770000", "141115.770000", "141117.770000", "141119.770000", "141121.770000", "141123.770000", "141125.770000", "141127.770000", "141129.770000", "141131.770000", "141133.770000", "141135.770000", "141137.770000", "141139.770000", "141141.770000", "141143.770000", "141145.770000", "141147.770000", "141149.770000", "141151.770000", "141153.770000", "141155.770000", "141157.770000", "141159.770000", "141201.770000", "141203.770000", "141205.770000", "141207.770000", "141209.770000", "141211.770000", "141213.770000", "141215.770000", "141217.770000", "141219.770000", "141221.770000", "141223.770000", "141225.770000", "141227.770000", "141229.770000", "141231.770000", "141233.770000", "141235.770000", "141237.770000", "141239.770000", "141241.770000", "141243.770000", "141245.770000", "141247.770000", "141249.770000", "141251.770000", "141253.770000", "141255.770000", "141257.770000", "141259.770000", "141301.770000", "141303.770000", "141305.770000", "141307.770000", "141309.770000", "141311.770000", "141313.770000", "141315.770000", "141317.770000", "141319.770000", "141321.770000", "141323.770000", "141325.770000", "141327.770000", "141329.770000", "141331.770000", "141333.770000", "141335.770000", "141337.770000", "141339.770000", "141341.770000", "141343.770000", "141345.770000", "141347.770000", "141349.770000", "141351.770000", "141353.770000", "141355.770000", "141357.770000", "141359.770000", "141401.770000", "141403.770000", "141405.770000", "141407.770000", "141409.770000", "141411.770000", "141413.770000", "141415.770000", "141417.770000", "141419.770000", "141421.770000", "141423.770000", "141425.770000", "141427.770000", "141429.770000", "141431.770000", "141433.770000", "141435.770000", "141437.770000"],
      "ContentTime": ["140402.711000", "140402.715000", "140402.718000", "140402.721000", "140402.723000", "140402.732000", "140402.735000", "140402.737000", "140402.740000", "140402.743000", "140402.745000", "140402.748000", "140402.751000", "140402.754000", "140402.756000", "140402.764000", "140402.767000", "140402.770000", "140402.773000", "140402.776000", "140402.778000", "140402.781000", "140442.708000", "140442.719000", "140442.722000", "140442.725000", "140442.727000", "140442.730000", "140442.733000", "140442.736000", "140442.738000", "140442.741000", "140442.744000", "140442.747000", "140442.749000", "140442.752000", "140442.755000", "140442.758000", "140442.760000", "140442.763000", "140442.766000", "140442.769000", "140522.708000", "140522.711000", "140522.713000", "140522.716000", "140522.719000", "140522.731000", "140522.734000", "140522.737000", "140522.740000", "140522.742000", "140522.745000", "140522.748000", "140522.751000", "140522.753000", "140522.756000", "140522.759000", "140522.762000", "140522.764000", "140522.767000", "140522.770000", "140602.708000", "140602.711000", "140602.713000", "140602.716000", "140602.719000", "140602.722000", "140602.725000", "140602.728000", "140602.730000", "140602.733000", "140602.736000", "140602.739000", "140602.741000", "140602.744000", "140602.747000", "140602.750000", "140602.752000", "140602.755000", "140602.758000", "140602.761000", "140642.707000", "140642.710000", "140642.712000", "140642.715000", "140642.718000", "140642.721000", "140642.724000", "140642.726000", "140642.729000", "140642.732000", "140642.735000", "140642.738000", "140642.740000", "140642.743000", "140642.746000", "140642.748000", "140642.751000", "140642.754000", "140642.757000", "140642.760000", "140722.708000", "140722.711000", "140722.714000", "140722.717000", "140722.719000", "140722.722000", "140722.725000", "140722.728000", "140722.730000", "140722.733000", "140722.736000", "140722.739000", "140722.741000", "140722.744000", "140722.747000", "140722.750000", "140722.752000", "140722.755000", "140722.758000", "140722.761000", "140802.708000", "140802.711000", "140802.713000", "140802.716000", "140802.719000", "140802.722000", "140802.725000", "140802.728000", "140802.730000", "140802.733000", "140802.736000", "140802.739000", "140802.741000", "140802.744000", "140802.747000", "140802.750000", "140802.752000", "140802.755000", "140802.758000", "140802.761000", "140842.707000", "140842.710000", "140842.712000", "140842.715000", "140842.718000", "140842.721000", "140842.724000", "140842.727000", "140842.729000", "140842.732000", "140842.735000", "140842.738000", "140842.741000", "140842.743000", "140842.746000", "140842.749000", "140842.752000", "140842.754000", "140842.757000", "140842.760000", "140922.708000", "140922.711000", "140922.714000", "140922.716000", "140922.719000", "140922.722000", "140922.725000", "140922.728000", "140922.730000", "140922.733000", "140922.736000", "140922.739000", "140922.741000", "140922.744000", "140922.747000", "140922.750000", "140922.752000", "140922.755000", "140922.758000", "140922.761000", "141002.708000", "141002.711000", "141002.713000", "141002.716000", "141002.719000", "141002.722000", "141002.725000", "141002.728000", "141002.730000", "141002.733000", "141002.736000", "141002.739000", "141002.741000", "141002.744000", "141002.747000", "141002.750000", "141002.752000", "141002.755000", "141002.758000", "141002.761000", "141042.708000", "141042.711000", "141042.720000", "141042.723000", "141042.726000", "141042.729000", "141042.731000", "141042.734000", "141042.737000", "141042.740000", "141042.742000", "141042.745000", "141042.748000", "141042.751000", "141042.753000", "141042.756000", "141042.759000", "141042.762000", "141042.764000", "141042.767000", "141122.707000", "141122.710000", "141122.713000", "141122.716000", "141122.718000", "141122.721000", "141122.724000", "141122.727000", "141122.730000", "141122.732000", "141122.735000", "141122.738000", "141122.741000", "141122.743000", "141122.746000", "141122.749000", "141122.752000", "141122.755000", "141122.758000", "141122.761000", "141202.708000", "141202.711000", "141202.714000", "141202.716000", "141202.719000", "141202.722000", "141202.724000", "141202.727000", "141202.730000", "141202.733000", "141202.736000", "141202.739000", "141202.741000", "141202.744000", "141202.747000", "141202.750000", "141202.753000", "141202.755000", "141202.758000", "141202.761000", "141222.708000", "141222.711000", "141222.714000", "141222.717000", "141222.719000", "141222.722000", "141222.725000", "141222.728000", "141222.730000", "141222.733000", "141302.708000", "141302.711000", "141302.714000", "141302.717000", "141302.719000", "141302.722000", "141302.725000", "141302.728000", "141302.731000", "141302.733000", "141302.736000", "141302.739000", "141302.742000", "141302.745000", "141302.747000", "141302.750000", "141302.753000", "141302.756000", "141302.759000", "141302.761000", "141342.707000", "141342.710000", "141342.713000", "141342.715000", "141342.718000", "141342.721000", "141342.724000", "141342.727000", "141342.729000", "141342.732000", "141342.735000", "141342.738000", "141342.740000", "141342.743000", "141342.746000", "141342.749000", "141342.752000", "141342.754000", "141342.757000", "141342.760000", "141422.708000", "141422.711000", "141422.714000", "141422.716000", "141422.719000", "141422.722000", "141422.725000", "141422.728000", "141422.730000", "141422.733000", "141422.736000", "141422.739000", "141422.742000", "141422.745000", "141422.747000", "141422.750000", "141422.753000", "141422.756000", "141422.758000", "141422.761000", "141439.378000", "141439.381000", "141439.384000", "141439.387000", "141439.390000", "141439.393000", "141439.395000", "141439.398000", "141439.401000"],
      "DataSetTrailingPadding": [
        "\u0000\u0000\u0000\u0000\u0000\u0000\u0000\u0000\u0000\u0000\u0000\u0000\u0000\u0000\u0000\u0000\u0000\u0000\u0000\u0000\u0000\u0000\u0000\u0000\u0000\u0000\u0000\u0000\u0000\u0000\u0000\u0000\u0000\u0000\u0000\u0000\u0000\u0000\u0000\u0000\u0000\u0000\u0000\u0000\u0000\u0000\u0000\u0000\u0000\u0000\u0000\u0000\u0000\u0000\u0000\u0000\u0000\u0000\u0000\u0000\u0000\u0000\u0000\u0000\u0000\u0000\u0000\u0000\u0000\u0000\u0000\u0000\u0000\u0000\u0000\u0000\u0000\u0000\u0000\u0000",
        "\u0000\u0000\u0000\u0000\u0000\u0000\u0000\u0000\u0000\u0000\u0000\u0000\u0000\u0000\u0000\u0000\u0000\u0000\u0000\u0000\u0000\u0000\u0000\u0000\u0000\u0000\u0000\u0000\u0000\u0000\u0000\u0000\u0000\u0000\u0000\u0000\u0000\u0000\u0000\u0000\u0000\u0000\u0000\u0000\u0000\u0000\u0000\u0000\u0000\u0000\u0000\u0000\u0000\u0000\u0000\u0000\u0000\u0000\u0000\u0000\u0000\u0000\u0000\u0000\u0000\u0000\u0000\u0000\u0000\u0000\u0000\u0000\u0000\u0000\u0000\u0000\u0000\u0000",
        "\u0000\u0000\u0000\u0000\u0000\u0000\u0000\u0000\u0000\u0000\u0000\u0000\u0000\u0000\u0000\u0000\u0000\u0000\u0000\u0000\u0000\u0000\u0000\u0000\u0000\u0000\u0000\u0000\u0000\u0000\u0000\u0000\u0000\u0000\u0000\u0000\u0000\u0000\u0000\u0000\u0000\u0000\u0000\u0000\u0000\u0000\u0000\u0000\u0000\u0000\u0000\u0000\u0000\u0000\u0000\u0000\u0000\u0000\u0000\u0000\u0000\u0000\u0000\u0000\u0000\u0000\u0000\u0000\u0000\u0000\u0000\u0000\u0000\u0000\u0000\u0000\u0000\u0000\u0000\u0000",
        "\u0000\u0000\u0000\u0000\u0000\u0000\u0000\u0000\u0000\u0000\u0000\u0000\u0000\u0000\u0000\u0000\u0000\u0000\u0000\u0000\u0000\u0000\u0000\u0000\u0000\u0000\u0000\u0000\u0000\u0000\u0000\u0000\u0000\u0000\u0000\u0000\u0000\u0000\u0000\u0000\u0000\u0000\u0000\u0000\u0000\u0000\u0000\u0000\u0000\u0000\u0000\u0000\u0000\u0000\u0000\u0000\u0000\u0000\u0000\u0000\u0000\u0000\u0000\u0000\u0000\u0000\u0000\u0000\u0000\u0000\u0000\u0000\u0000\u0000\u0000\u0000\u0000\u0000",
        "\u0000\u0000\u0000\u0000\u0000\u0000\u0000\u0000\u0000\u0000\u0000\u0000\u0000\u0000\u0000\u0000\u0000\u0000\u0000\u0000\u0000\u0000\u0000\u0000\u0000\u0000\u0000\u0000\u0000\u0000\u0000\u0000\u0000\u0000\u0000\u0000\u0000\u0000\u0000\u0000\u0000\u0000\u0000\u0000\u0000\u0000\u0000\u0000\u0000\u0000\u0000\u0000\u0000\u0000\u0000\u0000\u0000\u0000\u0000\u0000\u0000\u0000\u0000\u0000\u0000\u0000\u0000\u0000\u0000\u0000\u0000\u0000\u0000\u0000\u0000\u0000",
        "\u0000\u0000\u0000\u0000\u0000\u0000\u0000\u0000\u0000\u0000\u0000\u0000\u0000\u0000\u0000\u0000\u0000\u0000\u0000\u0000\u0000\u0000\u0000\u0000\u0000\u0000\u0000\u0000\u0000\u0000\u0000\u0000\u0000\u0000\u0000\u0000\u0000\u0000\u0000\u0000\u0000\u0000\u0000\u0000\u0000\u0000\u0000\u0000\u0000\u0000\u0000\u0000\u0000\u0000\u0000\u0000\u0000\u0000\u0000\u0000\u0000\u0000\u0000\u0000\u0000\u0000\u0000\u0000\u0000\u0000\u0000\u0000\u0000\u0000\u0000\u0000",
        "\u0000\u0000\u0000\u0000\u0000\u0000\u0000\u0000\u0000\u0000\u0000\u0000\u0000\u0000\u0000\u0000\u0000\u0000\u0000\u0000\u0000\u0000\u0000\u0000\u0000\u0000\u0000\u0000\u0000\u0000\u0000\u0000\u0000\u0000\u0000\u0000\u0000\u0000\u0000\u0000\u0000\u0000\u0000\u0000\u0000\u0000\u0000\u0000\u0000\u0000\u0000\u0000\u0000\u0000\u0000\u0000\u0000\u0000\u0000\u0000\u0000\u0000\u0000\u0000\u0000\u0000\u0000\u0000\u0000\u0000\u0000\u0000\u0000\u0000\u0000\u0000",
        "\u0000\u0000\u0000\u0000\u0000\u0000\u0000\u0000\u0000\u0000\u0000\u0000\u0000\u0000\u0000\u0000\u0000\u0000\u0000\u0000\u0000\u0000\u0000\u0000\u0000\u0000\u0000\u0000\u0000\u0000\u0000\u0000\u0000\u0000\u0000\u0000\u0000\u0000\u0000\u0000\u0000\u0000\u0000\u0000\u0000\u0000\u0000\u0000\u0000\u0000\u0000\u0000\u0000\u0000\u0000\u0000\u0000\u0000\u0000\u0000\u0000\u0000\u0000\u0000\u0000\u0000\u0000\u0000\u0000\u0000\u0000\u0000\u0000\u0000\u0000\u0000",
        "\u0000\u0000\u0000\u0000\u0000\u0000\u0000\u0000\u0000\u0000\u0000\u0000\u0000\u0000\u0000\u0000\u0000\u0000\u0000\u0000\u0000\u0000\u0000\u0000\u0000\u0000\u0000\u0000\u0000\u0000\u0000\u0000\u0000\u0000\u0000\u0000\u0000\u0000\u0000\u0000\u0000\u0000\u0000\u0000\u0000\u0000\u0000\u0000\u0000\u0000\u0000\u0000\u0000\u0000\u0000\u0000\u0000\u0000\u0000\u0000\u0000\u0000\u0000\u0000\u0000\u0000\u0000\u0000\u0000\u0000\u0000\u0000\u0000\u0000\u0000\u0000",
        "\u0000\u0000\u0000\u0000\u0000\u0000\u0000\u0000\u0000\u0000\u0000\u0000\u0000\u0000\u0000\u0000\u0000\u0000\u0000\u0000\u0000\u0000\u0000\u0000\u0000\u0000\u0000\u0000\u0000\u0000\u0000\u0000\u0000\u0000\u0000\u0000\u0000\u0000\u0000\u0000\u0000\u0000\u0000\u0000\u0000\u0000\u0000\u0000\u0000\u0000\u0000\u0000\u0000\u0000\u0000\u0000\u0000\u0000\u0000\u0000\u0000\u0000\u0000\u0000\u0000\u0000\u0000\u0000\u0000\u0000\u0000\u0000\u0000\u0000\u0000\u0000",
        "\u0000\u0000\u0000\u0000\u0000\u0000\u0000\u0000\u0000\u0000\u0000\u0000\u0000\u0000\u0000\u0000\u0000\u0000\u0000\u0000\u0000\u0000\u0000\u0000\u0000\u0000\u0000\u0000\u0000\u0000\u0000\u0000\u0000\u0000\u0000\u0000\u0000\u0000\u0000\u0000\u0000\u0000\u0000\u0000\u0000\u0000\u0000\u0000\u0000\u0000\u0000\u0000\u0000\u0000\u0000\u0000\u0000\u0000\u0000\u0000\u0000\u0000\u0000\u0000\u0000\u0000\u0000\u0000\u0000\u0000\u0000\u0000\u0000\u0000\u0000\u0000",
        "\u0000\u0000\u0000\u0000\u0000\u0000\u0000\u0000\u0000\u0000\u0000\u0000\u0000\u0000\u0000\u0000\u0000\u0000\u0000\u0000\u0000\u0000\u0000\u0000\u0000\u0000\u0000\u0000\u0000\u0000\u0000\u0000\u0000\u0000\u0000\u0000\u0000\u0000\u0000\u0000\u0000\u0000\u0000\u0000\u0000\u0000\u0000\u0000\u0000\u0000\u0000\u0000\u0000\u0000\u0000\u0000\u0000\u0000\u0000\u0000\u0000\u0000\u0000\u0000\u0000\u0000\u0000\u0000\u0000\u0000\u0000\u0000\u0000\u0000\u0000\u0000",
        "\u0000\u0000\u0000\u0000\u0000\u0000\u0000\u0000\u0000\u0000\u0000\u0000\u0000\u0000\u0000\u0000\u0000\u0000\u0000\u0000\u0000\u0000\u0000\u0000\u0000\u0000\u0000\u0000\u0000\u0000\u0000\u0000\u0000\u0000\u0000\u0000\u0000\u0000\u0000\u0000\u0000\u0000\u0000\u0000\u0000\u0000\u0000\u0000\u0000\u0000\u0000\u0000\u0000\u0000\u0000\u0000\u0000\u0000\u0000\u0000\u0000\u0000\u0000\u0000\u0000\u0000\u0000\u0000\u0000\u0000\u0000\u0000\u0000\u0000\u0000\u0000",
        "\u0000\u0000\u0000\u0000\u0000\u0000\u0000\u0000\u0000\u0000\u0000\u0000\u0000\u0000\u0000\u0000\u0000\u0000\u0000\u0000\u0000\u0000\u0000\u0000\u0000\u0000\u0000\u0000\u0000\u0000\u0000\u0000\u0000\u0000\u0000\u0000\u0000\u0000\u0000\u0000\u0000\u0000\u0000\u0000\u0000\u0000\u0000\u0000\u0000\u0000\u0000\u0000\u0000\u0000\u0000\u0000\u0000\u0000\u0000\u0000\u0000\u0000\u0000\u0000\u0000\u0000\u0000\u0000\u0000\u0000\u0000\u0000\u0000\u0000\u0000\u0000",
        "\u0000\u0000\u0000\u0000\u0000\u0000\u0000\u0000\u0000\u0000\u0000\u0000\u0000\u0000\u0000\u0000\u0000\u0000\u0000\u0000\u0000\u0000\u0000\u0000\u0000\u0000\u0000\u0000\u0000\u0000\u0000\u0000\u0000\u0000\u0000\u0000\u0000\u0000\u0000\u0000\u0000\u0000\u0000\u0000\u0000\u0000\u0000\u0000\u0000\u0000\u0000\u0000\u0000\u0000\u0000\u0000\u0000\u0000\u0000\u0000\u0000\u0000\u0000\u0000\u0000\u0000\u0000\u0000\u0000\u0000\u0000\u0000\u0000\u0000\u0000\u0000",
        "\u0000\u0000\u0000\u0000\u0000\u0000\u0000\u0000\u0000\u0000\u0000\u0000\u0000\u0000\u0000\u0000\u0000\u0000\u0000\u0000\u0000\u0000\u0000\u0000\u0000\u0000\u0000\u0000\u0000\u0000\u0000\u0000\u0000\u0000\u0000\u0000\u0000\u0000\u0000\u0000\u0000\u0000\u0000\u0000\u0000\u0000\u0000\u0000\u0000\u0000\u0000\u0000\u0000\u0000\u0000\u0000\u0000\u0000\u0000\u0000\u0000\u0000\u0000\u0000\u0000\u0000\u0000\u0000\u0000\u0000\u0000\u0000\u0000\u0000\u0000\u0000",
        "\u0000\u0000\u0000\u0000\u0000\u0000\u0000\u0000\u0000\u0000\u0000\u0000\u0000\u0000\u0000\u0000\u0000\u0000\u0000\u0000\u0000\u0000\u0000\u0000\u0000\u0000\u0000\u0000\u0000\u0000\u0000\u0000\u0000\u0000\u0000\u0000\u0000\u0000\u0000\u0000\u0000\u0000\u0000\u0000\u0000\u0000\u0000\u0000\u0000\u0000\u0000\u0000\u0000\u0000\u0000\u0000\u0000\u0000\u0000\u0000\u0000\u0000\u0000\u0000\u0000\u0000\u0000\u0000\u0000\u0000\u0000\u0000\u0000\u0000\u0000\u0000",
        "\u0000\u0000\u0000\u0000\u0000\u0000\u0000\u0000\u0000\u0000\u0000\u0000\u0000\u0000\u0000\u0000\u0000\u0000\u0000\u0000\u0000\u0000\u0000\u0000\u0000\u0000\u0000\u0000\u0000\u0000\u0000\u0000\u0000\u0000\u0000\u0000\u0000\u0000\u0000\u0000\u0000\u0000\u0000\u0000\u0000\u0000\u0000\u0000\u0000\u0000\u0000\u0000\u0000\u0000\u0000\u0000\u0000\u0000\u0000\u0000\u0000\u0000\u0000\u0000\u0000\u0000\u0000\u0000\u0000\u0000\u0000\u0000\u0000\u0000\u0000\u0000",
        "\u0000\u0000\u0000\u0000\u0000\u0000\u0000\u0000\u0000\u0000\u0000\u0000\u0000\u0000\u0000\u0000\u0000\u0000\u0000\u0000\u0000\u0000\u0000\u0000\u0000\u0000\u0000\u0000\u0000\u0000\u0000\u0000\u0000\u0000\u0000\u0000\u0000\u0000\u0000\u0000\u0000\u0000\u0000\u0000\u0000\u0000\u0000\u0000\u0000\u0000\u0000\u0000\u0000\u0000\u0000\u0000\u0000\u0000\u0000\u0000\u0000\u0000\u0000\u0000\u0000\u0000\u0000\u0000\u0000\u0000\u0000\u0000\u0000\u0000\u0000\u0000",
        "\u0000\u0000\u0000\u0000\u0000\u0000\u0000\u0000\u0000\u0000\u0000\u0000\u0000\u0000\u0000\u0000\u0000\u0000\u0000\u0000\u0000\u0000\u0000\u0000\u0000\u0000\u0000\u0000\u0000\u0000\u0000\u0000\u0000\u0000\u0000\u0000\u0000\u0000\u0000\u0000\u0000\u0000\u0000\u0000\u0000\u0000\u0000\u0000\u0000\u0000\u0000\u0000\u0000\u0000\u0000\u0000\u0000\u0000\u0000\u0000\u0000\u0000\u0000\u0000\u0000\u0000\u0000\u0000\u0000\u0000\u0000\u0000\u0000\u0000\u0000\u0000",
        "\u0000\u0000\u0000\u0000\u0000\u0000\u0000\u0000\u0000\u0000\u0000\u0000\u0000\u0000\u0000\u0000\u0000\u0000\u0000\u0000\u0000\u0000\u0000\u0000\u0000\u0000\u0000\u0000\u0000\u0000\u0000\u0000\u0000\u0000\u0000\u0000\u0000\u0000\u0000\u0000\u0000\u0000\u0000\u0000\u0000\u0000\u0000\u0000\u0000\u0000\u0000\u0000\u0000\u0000\u0000\u0000\u0000\u0000\u0000\u0000\u0000\u0000\u0000\u0000\u0000\u0000\u0000\u0000\u0000\u0000\u0000\u0000\u0000\u0000\u0000\u0000",
        "\u0000\u0000\u0000\u0000\u0000\u0000\u0000\u0000\u0000\u0000\u0000\u0000\u0000\u0000\u0000\u0000\u0000\u0000\u0000\u0000\u0000\u0000\u0000\u0000\u0000\u0000\u0000\u0000\u0000\u0000\u0000\u0000\u0000\u0000\u0000\u0000\u0000\u0000\u0000\u0000\u0000\u0000\u0000\u0000\u0000\u0000\u0000\u0000\u0000\u0000\u0000\u0000\u0000\u0000\u0000\u0000\u0000\u0000\u0000\u0000\u0000\u0000\u0000\u0000\u0000\u0000\u0000\u0000\u0000\u0000\u0000\u0000\u0000\u0000\u0000\u0000",
        "\u0000\u0000\u0000\u0000\u0000\u0000\u0000\u0000\u0000\u0000\u0000\u0000\u0000\u0000\u0000\u0000\u0000\u0000\u0000\u0000\u0000\u0000\u0000\u0000\u0000\u0000\u0000\u0000\u0000\u0000\u0000\u0000\u0000\u0000\u0000\u0000\u0000\u0000\u0000\u0000\u0000\u0000\u0000\u0000\u0000\u0000\u0000\u0000\u0000\u0000\u0000\u0000\u0000\u0000\u0000\u0000\u0000\u0000\u0000\u0000\u0000\u0000\u0000\u0000\u0000\u0000\u0000\u0000\u0000\u0000\u0000\u0000\u0000\u0000\u0000\u0000",
        "\u0000\u0000\u0000\u0000\u0000\u0000\u0000\u0000\u0000\u0000\u0000\u0000\u0000\u0000\u0000\u0000\u0000\u0000\u0000\u0000\u0000\u0000\u0000\u0000\u0000\u0000\u0000\u0000\u0000\u0000\u0000\u0000\u0000\u0000\u0000\u0000\u0000\u0000\u0000\u0000\u0000\u0000\u0000\u0000\u0000\u0000\u0000\u0000\u0000\u0000\u0000\u0000\u0000\u0000\u0000\u0000\u0000\u0000\u0000\u0000\u0000\u0000\u0000\u0000\u0000\u0000\u0000\u0000\u0000\u0000\u0000\u0000\u0000\u0000\u0000\u0000",
