{
  "AcquisitionMatrixPE": 70,
  "AcquisitionNumber": 1,
  "AcquisitionTime": "13:26:49.702500",
  "BandwidthPerPixelPhaseEncode": 51.948,
  "BaseResolution": 70,
  "BodyPartExamined": "HEAD",
  "CoilCombinationMethod": "Sum of Squares",
  "ConsistencyInfo": "N4_VE11C_LATEST_20160120",
  "ConversionSoftware": "dcm2niix",
  "ConversionSoftwareVersion": "v1.0.20220720",
  "DerivedVendorReportedEchoSpacing": 0.000550001,
  "DeviceSerialNumber": "66061",
  "DwellTime": 3.3e-06,
  "EchoTime": 0.022,
  "EchoTrainLength": 35,
  "EffectiveEchoSpacing": 0.000275,
  "FlipAngle": 90,
  "HeudiconvVersion": "1.1.1",
  "ImageOrientationPatientDICOM": [0.999574, 0.00656713, 0.0284371, -0.00122118, 0.982913, -0.184064],
  "ImageOrientationText": "Tra>Cor(-10.6)>Sag(1.7)",
  "ImageType": [
    "ORIGINAL",
    "PRIMARY",
    "M",
    "ND",
    "NORM",
    "MOSAIC"
],
  "ImagingFrequency": 123.254,
  "InPlanePhaseEncodingDirectionDICOM": "COL",
  "InstitutionAddress": "Street StreetNo,City/1c4204/,District,KR,ZIP",
  "InstitutionName": "SKKU",
  "InstitutionalDepartmentName": "Department",
  "MRAcquisitionType": "2D",
  "MagneticFieldStrength": 3,
  "Manufacturer": "Siemens",
  "ManufacturersModelName": "Prisma",
  "MatrixCoilMode": "GRAPPA",
  "Modality": "MR",
  "NonlinearGradientCorrection": false,
  "ParallelReductionFactorInPlane": 2,
  "PartialFourier": 1,
  "PatientPosition": "HFS",
  "PercentPhaseFOV": 100,
  "PercentSampling": 100,
  "PhaseEncodingDirection": "j-",
  "PhaseEncodingSteps": 70,
  "PhaseResolution": 1,
  "PixelBandwidth": 2165,
  "ProcedureStepDescription": "Head^PI:Others",
  "ProtocolName": "BOLD_ep2d_3x3x3_response1",
  "PulseSequenceDetails": "%SiemensSeq%\\ep2d_pace",
  "ReceiveCoilActiveElements": "HC1-7",
  "ReceiveCoilName": "HeadNeck_64",
  "ReconMatrixPE": 70,
  "RefLinesPE": 24,
  "RepetitionTime": 2,
  "SAR": 0.139402,
  "ScanOptions": "FS",
  "ScanningSequence": "EP",
  "SequenceName": "*epfid2d1_70",
  "SequenceVariant": "SK",
  "SeriesDescription": "BOLD_ep2d_3x3x3_response1",
  "SeriesNumber": 6,
  "ShimSetting": [5051, 3749, 4430, 439, -57, 83, 18, 46],
  "SliceThickness": 3,
  "SliceTiming": [0.99, 0, 1.0375, 0.0475, 1.085, 0.095, 1.1325, 0.1425, 1.18, 0.19, 1.2275, 0.2375, 1.2725, 0.285, 1.32, 0.33, 1.3675, 0.3775, 1.415, 0.425, 1.4625, 0.4725, 1.51, 0.52, 1.5575, 0.5675, 1.6025, 0.615, 1.65, 0.66, 1.6975, 0.7075, 1.745, 0.755, 1.7925, 0.8025, 1.84, 0.85, 1.8875, 0.8975, 1.9325, 0.945],
  "SoftwareVersions": "syngo MR E11",
  "SpacingBetweenSlices": 3,
  "StationName": "AWP66061",
  "TaskName": "response",
  "TotalReadoutTime": 0.018975,
  "TxRefAmp": 252.743,
  "dcmmeta_affine": [
    [-2.9987220764160156, -0.003663542913272977, 0.08747999370098114, 106.26195526123047],
    [-0.019701402634382248, 2.948740243911743, -0.5518540740013123, -84.63433837890625],
    [0.08531134575605392, 0.5521934628486633, 2.9475080966949463, -70.06209564208984],
    [0.0, 0.0, 0.0, 1.0]
],
  "dcmmeta_reorient_transform": [
    [0.0, -1.0, 0.0, 69.0],
    [1.0, 0.0, 0.0, 0.0],
    [0.0, 0.0, -1.0, 41.0],
    [0.0, 0.0, 0.0, 1.0]
],
  "dcmmeta_shape": [70, 70, 42, 341],
  "dcmmeta_slice_dim": 2,
  "dcmmeta_version": 0.6,
  "global": {
    "const": {
      "AcquisitionMatrix": [70, 0, 0, 70],
      "AngioFlag": "N",
      "BitsAllocated": 16,
      "BitsStored": 12,
      "BodyPartExamined": "HEAD",
      "Columns": 490,
      "EchoNumbers": 1,
      "EchoTime": 22.0,
      "EchoTrainLength": 35,
      "FlipAngle": 90.0,
      "HighBit": 11,
      "ImageOrientationPatient": [0.99957401087885, 0.00656713390529, 0.0284371153221, -0.0012211809867, 0.98291340985816, -0.1840644926052],
      "ImagePositionPatient": [-738.5581335672, -719.5754597026, 186.93234117514],
      "ImageType": [
        "ORIGINAL",
        "PRIMARY",
        "M",
        "ND",
        "NORM",
        "MOSAIC"
],
      "ImagedNucleus": "1H",
      "ImagingFrequency": 123.254473,
      "InPlanePhaseEncodingDirection": "COL",
      "MRAcquisitionType": "2D",
      "MagneticFieldStrength": 3.0,
      "Manufacturer": "SIEMENS",
      "ManufacturerModelName": "Prisma",
      "Modality": "MR",
      "NumberOfAverages": 1.0,
      "NumberOfPhaseEncodingSteps": 70,
      "PercentPhaseFieldOfView": 100.0,
      "PercentSampling": 100.0,
      "PerformedProcedureStepStartTime": "124525.455000",
      "PhotometricInterpretation": "MONOCHROME2",
      "PixelBandwidth": 2165.0,
      "PixelRepresentation": 0,
      "PixelSpacing": [3.0, 3.0],
      "ProtocolName": "BOLD_ep2d_3x3x3_response1",
      "RepetitionTime": 2000.0,
      "Rows": 490,
      "SAR": 0.13940158025186,
      "SamplesPerPixel": 1,
      "ScanOptions": "FS",
      "ScanningSequence": "EP",
      "SequenceName": "*epfid2d1_70",
      "SequenceVariant": "SK",
      "SeriesDescription": "BOLD_ep2d_3x3x3_response1",
      "SeriesNumber": 6,
      "SeriesTime": "132730.358000",
      "SliceLocation": 72.831005555865,
      "SliceThickness": 3.0,
      "SmallestImagePixelValue": 0,
      "SoftwareVersions": "syngo MR E11",
      "SpacingBetweenSlices": 3.0000000232218,
      "SpecificCharacterSet": "ISO_IR 100",
      "StudyID": "1",
      "StudyTime": "124525.333000",
      "TransmitCoilName": "Body",
      "VariableFlipAngleFlag": "N",
      "WindowCenterWidthExplanation": "Algo1",
      "dBdt": 0.0},
    "slices": {}
  },
  "time": {
    "samples": {
      "AcquisitionNumber": [1, 2, 3, 4, 5, 6, 7, 8, 9, 10, 11, 12, 13, 14, 15, 16, 17, 18, 19, 20, 21, 22, 23, 24, 25, 26, 27, 28, 29, 30, 31, 32, 33, 34, 35, 36, 37, 38, 39, 40, 41, 42, 43, 44, 45, 46, 47, 48, 49, 50, 51, 52, 53, 54, 55, 56, 57, 58, 59, 60, 61, 62, 63, 64, 65, 66, 67, 68, 69, 70, 71, 72, 73, 74, 75, 76, 77, 78, 79, 80, 81, 82, 83, 84, 85, 86, 87, 88, 89, 90, 91, 92, 93, 94, 95, 96, 97, 98, 99, 100, 101, 102, 103, 104, 105, 106, 107, 108, 109, 110, 111, 112, 113, 114, 115, 116, 117, 118, 119, 120, 121, 122, 123, 124, 125, 126, 127, 128, 129, 130, 131, 132, 133, 134, 135, 136, 137, 138, 139, 140, 141, 142, 143, 144, 145, 146, 147, 148, 149, 150, 151, 152, 153, 154, 155, 156, 157, 158, 159, 160, 161, 162, 163, 164, 165, 166, 167, 168, 169, 170, 171, 172, 173, 174, 175, 176, 177, 178, 179, 180, 181, 182, 183, 184, 185, 186, 187, 188, 189, 190, 191, 192, 193, 194, 195, 196, 197, 198, 199, 200, 201, 202, 203, 204, 205, 206, 207, 208, 209, 210, 211, 212, 213, 214, 215, 216, 217, 218, 219, 220, 221, 222, 223, 224, 225, 226, 227, 228, 229, 230, 231, 232, 233, 234, 235, 236, 237, 238, 239, 240, 241, 242, 243, 244, 245, 246, 247, 248, 249, 250, 251, 252, 253, 254, 255, 256, 257, 258, 259, 260, 261, 262, 263, 264, 265, 266, 267, 268, 269, 270, 271, 272, 273, 274, 275, 276, 277, 278, 279, 280, 281, 282, 283, 284, 285, 286, 287, 288, 289, 290, 291, 292, 293, 294, 295, 296, 297, 298, 299, 300, 301, 302, 303, 304, 305, 306, 307, 308, 309, 310, 311, 312, 313, 314, 315, 316, 317, 318, 319, 320, 321, 322, 323, 324, 325, 326, 327, 328, 329, 330, 331, 332, 333, 334, 335, 336, 337, 338, 339, 340, 341],
      "AcquisitionTime": ["132649.702500", "132651.702500", "132653.702500", "132655.702500", "132657.702500", "132659.702500", "132701.702500", "132703.702500", "132705.702500", "132707.702500", "132709.702500", "132711.702500", "132713.702500", "132715.702500", "132717.702500", "132719.702500", "132721.702500", "132723.702500", "132725.702500", "132727.702500", "132729.702500", "132731.702500", "132733.702500", "132735.702500", "132737.702500", "132739.702500", "132741.702500", "132743.702500", "132745.702500", "132747.702500", "132749.702500", "132751.702500", "132753.702500", "132755.702500", "132757.702500", "132759.702500", "132801.702500", "132803.702500", "132805.702500", "132807.702500", "132809.702500", "132811.702500", "132813.702500", "132815.702500", "132817.702500", "132819.702500", "132821.702500", "132823.702500", "132825.702500", "132827.702500", "132829.702500", "132831.702500", "132833.702500", "132835.702500", "132837.702500", "132839.702500", "132841.702500", "132843.702500", "132845.702500", "132847.702500", "132849.702500", "132851.702500", "132853.702500", "132855.702500", "132857.702500", "132859.702500", "132901.702500", "132903.702500", "132905.702500", "132907.702500", "132909.702500", "132911.702500", "132913.702500", "132915.702500", "132917.702500", "132919.702500", "132921.702500", "132923.702500", "132925.702500", "132927.702500", "132929.702500", "132931.702500", "132933.702500", "132935.702500", "132937.702500", "132939.702500", "132941.702500", "132943.702500", "132945.702500", "132947.702500", "132949.702500", "132951.702500", "132953.702500", "132955.702500", "132957.702500", "132959.702500", "133001.702500", "133003.702500", "133005.702500", "133007.702500", "133009.702500", "133011.702500", "133013.702500", "133015.702500", "133017.702500", "133019.702500", "133021.702500", "133023.702500", "133025.702500", "133027.702500", "133029.702500", "133031.702500", "133033.702500", "133035.702500", "133037.702500", "133039.702500", "133041.702500", "133043.702500", "133045.702500", "133047.702500", "133049.702500", "133051.702500", "133053.702500", "133055.702500", "133057.702500", "133059.702500", "133101.702500", "133103.702500", "133105.702500", "133107.702500", "133109.702500", "133111.702500", "133113.702500", "133115.702500", "133117.702500", "133119.702500", "133121.702500", "133123.702500", "133125.702500", "133127.702500", "133129.702500", "133131.702500", "133133.702500", "133135.702500", "133137.702500", "133139.702500", "133141.702500", "133143.702500", "133145.702500", "133147.702500", "133149.702500", "133151.702500", "133153.702500", "133155.702500", "133157.702500", "133159.702500", "133201.702500", "133203.702500", "133205.702500", "133207.702500", "133209.702500", "133211.702500", "133213.702500", "133215.702500", "133217.702500", "133219.702500", "133221.702500", "133223.702500", "133225.702500", "133227.702500", "133229.702500", "133231.702500", "133233.702500", "133235.702500", "133237.702500", "133239.702500", "133241.702500", "133243.702500", "133245.702500", "133247.702500", "133249.702500", "133251.702500", "133253.702500", "133255.702500", "133257.702500", "133259.702500", "133301.702500", "133303.702500", "133305.702500", "133307.702500", "133309.702500", "133311.702500", "133313.702500", "133315.702500", "133317.702500", "133319.702500", "133321.702500", "133323.702500", "133325.702500", "133327.702500", "133329.702500", "133331.702500", "133333.702500", "133335.702500", "133337.702500", "133339.702500", "133341.702500", "133343.702500", "133345.702500", "133347.702500", "133349.702500", "133351.702500", "133353.702500", "133355.702500", "133357.702500", "133359.702500", "133401.702500", "133403.702500", "133405.702500", "133407.702500", "133409.702500", "133411.702500", "133413.702500", "133415.702500", "133417.702500", "133419.702500", "133421.702500", "133423.702500", "133425.702500", "133427.702500", "133429.702500", "133431.702500", "133433.702500", "133435.702500", "133437.702500", "133439.702500", "133441.702500", "133443.702500", "133445.702500", "133447.702500", "133449.702500", "133451.702500", "133453.702500", "133455.702500", "133457.702500", "133459.702500", "133501.702500", "133503.702500", "133505.702500", "133507.702500", "133509.702500", "133511.702500", "133513.702500", "133515.702500", "133517.702500", "133519.702500", "133521.702500", "133523.702500", "133525.702500", "133527.702500", "133529.702500", "133531.702500", "133533.702500", "133535.702500", "133537.702500", "133539.702500", "133541.702500", "133543.702500", "133545.702500", "133547.702500", "133549.702500", "133551.702500", "133553.702500", "133555.702500", "133557.702500", "133559.702500", "133601.702500", "133603.702500", "133605.702500", "133607.702500", "133609.702500", "133611.702500", "133613.702500", "133615.702500", "133617.702500", "133619.702500", "133621.702500", "133623.702500", "133625.702500", "133627.702500", "133629.702500", "133631.702500", "133633.702500", "133635.702500", "133637.702500", "133639.702500", "133641.702500", "133643.702500", "133645.702500", "133647.702500", "133649.702500", "133651.702500", "133653.702500", "133655.702500", "133657.702500", "133659.702500", "133701.702500", "133703.702500", "133705.702500", "133707.702500", "133709.702500", "133711.702500", "133713.702500", "133715.702500", "133717.702500", "133719.702500", "133721.702500", "133723.702500", "133725.702500", "133727.702500", "133729.702500", "133731.702500", "133733.702500", "133735.702500", "133737.702500", "133739.702500", "133741.702500", "133743.702500", "133745.702500", "133747.702500", "133749.702500", "133751.702500", "133753.702500", "133755.702500", "133757.702500", "133759.702500", "133801.702500", "133803.702500", "133805.702500", "133807.702500", "133809.702500"],
      "ContentTime": ["132730.361000", "132730.365000", "132730.368000", "132730.371000", "132730.374000", "132730.385000", "132730.388000", "132730.394000", "132730.396000", "132730.399000", "132730.402000", "132730.405000", "132730.407000", "132730.410000", "132730.413000", "132730.419000", "132730.421000", "132730.424000", "132730.427000", "132730.430000", "132810.358000", "132810.361000", "132810.363000", "132810.372000", "132810.375000", "132810.378000", "132810.381000", "132810.383000", "132810.386000", "132810.389000", "132810.392000", "132810.394000", "132810.398000", "132810.400000", "132810.403000", "132810.406000", "132810.409000", "132810.412000", "132810.414000", "132810.417000", "132850.358000", "132850.361000", "132850.363000", "132850.366000", "132850.369000", "132850.372000", "132850.374000", "132850.377000", "132850.380000", "132850.389000", "132850.392000", "132850.394000", "132850.397000", "132850.400000", "132850.403000", "132850.411000", "132850.414000", "132850.417000", "132850.419000", "132850.422000", "132930.357000", "132930.360000", "132930.362000", "132930.365000", "132930.368000", "132930.371000", "132930.374000", "132930.376000", "132930.379000", "132930.382000", "132930.385000", "132930.388000", "132930.390000", "132930.393000", "132930.396000", "132930.399000", "132930.402000", "132930.404000", "132930.407000", "132930.410000", "133010.357000", "133010.360000", "133010.362000", "133010.365000", "133010.368000", "133010.371000", "133010.374000", "133010.376000", "133010.379000", "133010.382000", "133010.385000", "133010.387000", "133010.390000", "133010.393000", "133010.396000", "133010.398000", "133010.401000", "133010.404000", "133010.407000", "133010.409000", "133050.358000", "133050.361000", "133050.363000", "133050.366000", "133050.369000", "133050.372000", "133050.379000", "133050.382000", "133050.385000", "133050.388000", "133050.390000", "133050.393000", "133050.396000", "133050.399000", "133050.401000", "133050.404000", "133050.407000", "133050.410000", "133050.413000", "133050.416000", "133130.357000", "133130.360000", "133130.362000", "133130.365000", "133130.368000", "133130.371000", "133130.373000", "133130.376000", "133130.379000", "133130.382000", "133130.384000", "133130.387000", "133130.390000", "133130.393000", "133130.396000", "133130.399000", "133130.402000", "133130.405000", "133130.408000", "133130.411000", "133150.357000", "133150.360000", "133150.362000", "133150.365000", "133150.368000", "133150.371000", "133150.374000", "133150.376000", "133150.379000", "133150.382000", "133230.357000", "133230.360000", "133230.369000", "133230.372000", "133230.375000", "133230.378000", "133230.380000", "133230.383000", "133230.386000", "133230.389000", "133230.391000", "133230.394000", "133230.397000", "133230.400000", "133230.402000", "133230.405000", "133230.408000", "133230.411000", "133230.414000", "133230.416000", "133310.358000", "133310.361000", "133310.364000", "133310.366000", "133310.369000", "133310.372000", "133310.375000", "133310.377000", "133310.380000", "133310.383000", "133310.386000", "133310.388000", "133310.391000", "133310.394000", "133310.397000", "133310.406000", "133310.409000", "133310.426000", "133310.429000", "133310.432000", "133350.357000", "133350.360000", "133350.363000", "133350.365000", "133350.368000", "133350.371000", "133350.374000", "133350.376000", "133350.379000", "133350.382000", "133350.385000", "133350.387000", "133350.390000", "133350.393000", "133350.396000", "133350.398000", "133350.401000", "133350.404000", "133350.407000", "133350.409000", "133430.357000", "133430.360000", "133430.363000", "133430.366000", "133430.368000", "133430.371000", "133430.374000", "133430.377000", "133430.379000", "133430.382000", "133430.385000", "133430.388000", "133430.391000", "133430.393000", "133430.396000", "133430.403000", "133430.406000", "133430.409000", "133430.412000", "133430.415000", "133510.358000", "133510.361000", "133510.364000", "133510.366000", "133510.369000", "133510.372000", "133510.375000", "133510.377000", "133510.380000", "133510.383000", "133510.385000", "133510.388000", "133510.391000", "133510.394000", "133510.396000", "133510.399000", "133510.402000", "133510.404000", "133510.407000", "133510.410000", "133550.358000", "133550.361000", "133550.364000", "133550.366000", "133550.369000", "133550.372000", "133550.375000", "133550.377000", "133550.380000", "133550.383000", "133550.386000", "133550.389000", "133550.391000", "133550.399000", "133550.402000", "133550.405000", "133550.407000", "133550.410000", "133550.413000", "133550.416000", "133630.357000", "133630.360000", "133630.363000", "133630.365000", "133630.368000", "133630.371000", "133630.374000", "133630.376000", "133630.379000", "133630.382000", "133630.385000", "133630.387000", "133630.399000", "133630.401000", "133630.404000", "133630.407000", "133630.410000", "133630.413000", "133630.416000", "133630.418000", "133710.357000", "133710.360000", "133710.363000", "133710.366000", "133710.368000", "133710.371000", "133710.374000", "133710.377000", "133710.379000", "133710.382000", "133710.385000", "133710.388000", "133710.390000", "133710.393000", "133710.396000", "133710.399000", "133710.402000", "133710.404000", "133710.407000", "133710.410000", "133750.358000", "133750.361000", "133750.364000", "133750.366000", "133750.369000", "133750.380000", "133750.382000", "133750.385000", "133750.388000", "133750.391000", "133750.394000", "133750.397000", "133750.399000", "133750.402000", "133750.405000", "133750.408000", "133750.410000", "133750.413000", "133750.416000", "133750.419000", "133810.912000", "133810.915000", "133810.917000", "133810.920000", "133810.923000", "133810.926000", "133810.929000", "133810.931000", "133810.934000", "133810.937000", "133810.940000"],
      "DataSetTrailingPadding": [
        "\u0000\u0000\u0000\u0000\u0000\u0000\u0000\u0000\u0000\u0000\u0000\u0000\u0000\u0000\u0000\u0000\u0000\u0000\u0000\u0000\u0000\u0000\u0000\u0000\u0000\u0000\u0000\u0000\u0000\u0000\u0000\u0000\u0000\u0000\u0000\u0000\u0000\u0000\u0000\u0000\u0000\u0000\u0000\u0000",
        "\u0000\u0000\u0000\u0000\u0000\u0000\u0000\u0000\u0000\u0000\u0000\u0000\u0000\u0000\u0000\u0000\u0000\u0000\u0000\u0000\u0000\u0000\u0000\u0000\u0000\u0000\u0000\u0000\u0000\u0000\u0000\u0000\u0000\u0000\u0000\u0000\u0000\u0000\u0000\u0000\u0000\u0000\u0000\u0000\u0000\u0000\u0000\u0000",
        "\u0000\u0000\u0000\u0000\u0000\u0000\u0000\u0000\u0000\u0000\u0000\u0000\u0000\u0000\u0000\u0000\u0000\u0000\u0000\u0000\u0000\u0000\u0000\u0000\u0000\u0000\u0000\u0000\u0000\u0000\u0000\u0000\u0000\u0000\u0000\u0000\u0000\u0000\u0000\u0000\u0000\u0000\u0000\u0000\u0000\u0000\u0000\u0000",
        "\u0000\u0000\u0000\u0000\u0000\u0000\u0000\u0000\u0000\u0000\u0000\u0000\u0000\u0000\u0000\u0000\u0000\u0000\u0000\u0000\u0000\u0000\u0000\u0000\u0000\u0000\u0000\u0000\u0000\u0000\u0000\u0000\u0000\u0000\u0000\u0000\u0000\u0000\u0000\u0000\u0000\u0000\u0000\u0000\u0000\u0000",
        "\u0000\u0000\u0000\u0000\u0000\u0000\u0000\u0000\u0000\u0000\u0000\u0000\u0000\u0000\u0000\u0000\u0000\u0000\u0000\u0000\u0000\u0000\u0000\u0000\u0000\u0000\u0000\u0000\u0000\u0000\u0000\u0000\u0000\u0000\u0000\u0000\u0000\u0000\u0000\u0000\u0000\u0000\u0000\u0000\u0000\u0000",
        "\u0000\u0000\u0000\u0000\u0000\u0000\u0000\u0000\u0000\u0000\u0000\u0000\u0000\u0000\u0000\u0000\u0000\u0000\u0000\u0000\u0000\u0000\u0000\u0000\u0000\u0000\u0000\u0000\u0000\u0000\u0000\u0000\u0000\u0000\u0000\u0000\u0000\u0000\u0000\u0000\u0000\u0000\u0000\u0000\u0000\u0000",
        "\u0000\u0000\u0000\u0000\u0000\u0000\u0000\u0000\u0000\u0000\u0000\u0000\u0000\u0000\u0000\u0000\u0000\u0000\u0000\u0000\u0000\u0000\u0000\u0000\u0000\u0000\u0000\u0000\u0000\u0000\u0000\u0000\u0000\u0000\u0000\u0000\u0000\u0000\u0000\u0000\u0000\u0000\u0000\u0000\u0000\u0000\u0000\u0000",
        "\u0000\u0000\u0000\u0000\u0000\u0000\u0000\u0000\u0000\u0000\u0000\u0000\u0000\u0000\u0000\u0000\u0000\u0000\u0000\u0000\u0000\u0000\u0000\u0000\u0000\u0000\u0000\u0000\u0000\u0000\u0000\u0000\u0000\u0000\u0000\u0000\u0000\u0000\u0000\u0000\u0000\u0000\u0000\u0000\u0000\u0000\u0000\u0000",
        "\u0000\u0000\u0000\u0000\u0000\u0000\u0000\u0000\u0000\u0000\u0000\u0000\u0000\u0000\u0000\u0000\u0000\u0000\u0000\u0000\u0000\u0000\u0000\u0000\u0000\u0000\u0000\u0000\u0000\u0000\u0000\u0000\u0000\u0000\u0000\u0000\u0000\u0000\u0000\u0000\u0000\u0000\u0000\u0000\u0000\u0000\u0000\u0000",
        "\u0000\u0000\u0000\u0000\u0000\u0000\u0000\u0000\u0000\u0000\u0000\u0000\u0000\u0000\u0000\u0000\u0000\u0000\u0000\u0000\u0000\u0000\u0000\u0000\u0000\u0000\u0000\u0000\u0000\u0000\u0000\u0000\u0000\u0000\u0000\u0000\u0000\u0000\u0000\u0000\u0000\u0000\u0000\u0000\u0000\u0000",
        "\u0000\u0000\u0000\u0000\u0000\u0000\u0000\u0000\u0000\u0000\u0000\u0000\u0000\u0000\u0000\u0000\u0000\u0000\u0000\u0000\u0000\u0000\u0000\u0000\u0000\u0000\u0000\u0000\u0000\u0000\u0000\u0000\u0000\u0000\u0000\u0000\u0000\u0000\u0000\u0000\u0000\u0000\u0000\u0000\u0000\u0000\u0000\u0000",
        "\u0000\u0000\u0000\u0000\u0000\u0000\u0000\u0000\u0000\u0000\u0000\u0000\u0000\u0000\u0000\u0000\u0000\u0000\u0000\u0000\u0000\u0000\u0000\u0000\u0000\u0000\u0000\u0000\u0000\u0000\u0000\u0000\u0000\u0000\u0000\u0000\u0000\u0000\u0000\u0000\u0000\u0000\u0000\u0000\u0000\u0000\u0000\u0000",
        "\u0000\u0000\u0000\u0000\u0000\u0000\u0000\u0000\u0000\u0000\u0000\u0000\u0000\u0000\u0000\u0000\u0000\u0000\u0000\u0000\u0000\u0000\u0000\u0000\u0000\u0000\u0000\u0000\u0000\u0000\u0000\u0000\u0000\u0000\u0000\u0000\u0000\u0000\u0000\u0000\u0000\u0000\u0000\u0000\u0000\u0000",
        "\u0000\u0000\u0000\u0000\u0000\u0000\u0000\u0000\u0000\u0000\u0000\u0000\u0000\u0000\u0000\u0000\u0000\u0000\u0000\u0000\u0000\u0000\u0000\u0000\u0000\u0000\u0000\u0000\u0000\u0000\u0000\u0000\u0000\u0000\u0000\u0000\u0000\u0000\u0000\u0000\u0000\u0000\u0000\u0000\u0000\u0000",
        "\u0000\u0000\u0000\u0000\u0000\u0000\u0000\u0000\u0000\u0000\u0000\u0000\u0000\u0000\u0000\u0000\u0000\u0000\u0000\u0000\u0000\u0000\u0000\u0000\u0000\u0000\u0000\u0000\u0000\u0000\u0000\u0000\u0000\u0000\u0000\u0000\u0000\u0000\u0000\u0000\u0000\u0000\u0000\u0000",
        "\u0000\u0000\u0000\u0000\u0000\u0000\u0000\u0000\u0000\u0000\u0000\u0000\u0000\u0000\u0000\u0000\u0000\u0000\u0000\u0000\u0000\u0000\u0000\u0000\u0000\u0000\u0000\u0000\u0000\u0000\u0000\u0000\u0000\u0000\u0000\u0000\u0000\u0000\u0000\u0000\u0000\u0000\u0000\u0000\u0000\u0000",
        "\u0000\u0000\u0000\u0000\u0000\u0000\u0000\u0000\u0000\u0000\u0000\u0000\u0000\u0000\u0000\u0000\u0000\u0000\u0000\u0000\u0000\u0000\u0000\u0000\u0000\u0000\u0000\u0000\u0000\u0000\u0000\u0000\u0000\u0000\u0000\u0000\u0000\u0000\u0000\u0000\u0000\u0000\u0000\u0000\u0000\u0000",
        "\u0000\u0000\u0000\u0000\u0000\u0000\u0000\u0000\u0000\u0000\u0000\u0000\u0000\u0000\u0000\u0000\u0000\u0000\u0000\u0000\u0000\u0000\u0000\u0000\u0000\u0000\u0000\u0000\u0000\u0000\u0000\u0000\u0000\u0000\u0000\u0000\u0000\u0000\u0000\u0000\u0000\u0000\u0000\u0000\u0000\u0000\u0000\u0000",
        "\u0000\u0000\u0000\u0000\u0000\u0000\u0000\u0000\u0000\u0000\u0000\u0000\u0000\u0000\u0000\u0000\u0000\u0000\u0000\u0000\u0000\u0000\u0000\u0000\u0000\u0000\u0000\u0000\u0000\u0000\u0000\u0000\u0000\u0000\u0000\u0000\u0000\u0000\u0000\u0000\u0000\u0000\u0000\u0000\u0000\u0000",
        "\u0000\u0000\u0000\u0000\u0000\u0000\u0000\u0000\u0000\u0000\u0000\u0000\u0000\u0000\u0000\u0000\u0000\u0000\u0000\u0000\u0000\u0000\u0000\u0000\u0000\u0000\u0000\u0000\u0000\u0000\u0000\u0000\u0000\u0000\u0000\u0000\u0000\u0000\u0000\u0000\u0000\u0000\u0000\u0000",
        "\u0000\u0000\u0000\u0000\u0000\u0000\u0000\u0000\u0000\u0000\u0000\u0000\u0000\u0000\u0000\u0000\u0000\u0000\u0000\u0000\u0000\u0000\u0000\u0000\u0000\u0000\u0000\u0000\u0000\u0000\u0000\u0000\u0000\u0000\u0000\u0000\u0000\u0000\u0000\u0000\u0000\u0000\u0000\u0000\u0000\u0000",
        "\u0000\u0000\u0000\u0000\u0000\u0000\u0000\u0000\u0000\u0000\u0000\u0000\u0000\u0000\u0000\u0000\u0000\u0000\u0000\u0000\u0000\u0000\u0000\u0000\u0000\u0000\u0000\u0000\u0000\u0000\u0000\u0000\u0000\u0000\u0000\u0000\u0000\u0000\u0000\u0000\u0000\u0000\u0000\u0000\u0000\u0000",
        "\u0000\u0000\u0000\u0000\u0000\u0000\u0000\u0000\u0000\u0000\u0000\u0000\u0000\u0000\u0000\u0000\u0000\u0000\u0000\u0000\u0000\u0000\u0000\u0000\u0000\u0000\u0000\u0000\u0000\u0000\u0000\u0000\u0000\u0000\u0000\u0000\u0000\u0000\u0000\u0000\u0000\u0000\u0000\u0000\u0000\u0000",
        "\u0000\u0000\u0000\u0000\u0000\u0000\u0000\u0000\u0000\u0000\u0000\u0000\u0000\u0000\u0000\u0000\u0000\u0000\u0000\u0000\u0000\u0000\u0000\u0000\u0000\u0000\u0000\u0000\u0000\u0000\u0000\u0000\u0000\u0000\u0000\u0000\u0000\u0000\u0000\u0000\u0000\u0000\u0000\u0000\u0000\u0000",
        "\u0000\u0000\u0000\u0000\u0000\u0000\u0000\u0000\u0000\u0000\u0000\u0000\u0000\u0000\u0000\u0000\u0000\u0000\u0000\u0000\u0000\u0000\u0000\u0000\u0000\u0000\u0000\u0000\u0000\u0000\u0000\u0000\u0000\u0000\u0000\u0000\u0000\u0000\u0000\u0000\u0000\u0000\u0000\u0000",
        "\u0000\u0000\u0000\u0000\u0000\u0000\u0000\u0000\u0000\u0000\u0000\u0000\u0000\u0000\u0000\u0000\u0000\u0000\u0000\u0000\u0000\u0000\u0000\u0000\u0000\u0000\u0000\u0000\u0000\u0000\u0000\u0000\u0000\u0000\u0000\u0000\u0000\u0000\u0000\u0000\u0000\u0000\u0000\u0000\u0000\u0000\u0000\u0000",
        "\u0000\u0000\u0000\u0000\u0000\u0000\u0000\u0000\u0000\u0000\u0000\u0000\u0000\u0000\u0000\u0000\u0000\u0000\u0000\u0000\u0000\u0000\u0000\u0000\u0000\u0000\u0000\u0000\u0000\u0000\u0000\u0000\u0000\u0000\u0000\u0000\u0000\u0000\u0000\u0000\u0000\u0000\u0000\u0000\u0000\u0000",
        "\u0000\u0000\u0000\u0000\u0000\u0000\u0000\u0000\u0000\u0000\u0000\u0000\u0000\u0000\u0000\u0000\u0000\u0000\u0000\u0000\u0000\u0000\u0000\u0000\u0000\u0000\u0000\u0000\u0000\u0000\u0000\u0000\u0000\u0000\u0000\u0000\u0000\u0000\u0000\u0000\u0000\u0000\u0000\u0000\u0000\u0000",
        "\u0000\u0000\u0000\u0000\u0000\u0000\u0000\u0000\u0000\u0000\u0000\u0000\u0000\u0000\u0000\u0000\u0000\u0000\u0000\u0000\u0000\u0000\u0000\u0000\u0000\u0000\u0000\u0000\u0000\u0000\u0000\u0000\u0000\u0000\u0000\u0000\u0000\u0000\u0000\u0000\u0000\u0000\u0000\u0000\u0000\u0000",
        "\u0000\u0000\u0000\u0000\u0000\u0000\u0000\u0000\u0000\u0000\u0000\u0000\u0000\u0000\u0000\u0000\u0000\u0000\u0000\u0000\u0000\u0000\u0000\u0000\u0000\u0000\u0000\u0000\u0000\u0000\u0000\u0000\u0000\u0000\u0000\u0000\u0000\u0000\u0000\u0000\u0000\u0000\u0000\u0000\u0000\u0000",
        "\u0000\u0000\u0000\u0000\u0000\u0000\u0000\u0000\u0000\u0000\u0000\u0000\u0000\u0000\u0000\u0000\u0000\u0000\u0000\u0000\u0000\u0000\u0000\u0000\u0000\u0000\u0000\u0000\u0000\u0000\u0000\u0000\u0000\u0000\u0000\u0000\u0000\u0000\u0000\u0000\u0000\u0000\u0000\u0000\u0000\u0000",
        "\u0000\u0000\u0000\u0000\u0000\u0000\u0000\u0000\u0000\u0000\u0000\u0000\u0000\u0000\u0000\u0000\u0000\u0000\u0000\u0000\u0000\u0000\u0000\u0000\u0000\u0000\u0000\u0000\u0000\u0000\u0000\u0000\u0000\u0000\u0000\u0000\u0000\u0000\u0000\u0000\u0000\u0000\u0000\u0000\u0000\u0000",
        "\u0000\u0000\u0000\u0000\u0000\u0000\u0000\u0000\u0000\u0000\u0000\u0000\u0000\u0000\u0000\u0000\u0000\u0000\u0000\u0000\u0000\u0000\u0000\u0000\u0000\u0000\u0000\u0000\u0000\u0000\u0000\u0000\u0000\u0000\u0000\u0000\u0000\u0000\u0000\u0000\u0000\u0000\u0000\u0000\u0000\u0000",
        "\u0000\u0000\u0000\u0000\u0000\u0000\u0000\u0000\u0000\u0000\u0000\u0000\u0000\u0000\u0000\u0000\u0000\u0000\u0000\u0000\u0000\u0000\u0000\u0000\u0000\u0000\u0000\u0000\u0000\u0000\u0000\u0000\u0000\u0000\u0000\u0000\u0000\u0000\u0000\u0000\u0000\u0000\u0000\u0000\u0000\u0000",
        "\u0000\u0000\u0000\u0000\u0000\u0000\u0000\u0000\u0000\u0000\u0000\u0000\u0000\u0000\u0000\u0000\u0000\u0000\u0000\u0000\u0000\u0000\u0000\u0000\u0000\u0000\u0000\u0000\u0000\u0000\u0000\u0000\u0000\u0000\u0000\u0000\u0000\u0000\u0000\u0000\u0000\u0000\u0000\u0000\u0000\u0000",
        "\u0000\u0000\u0000\u0000\u0000\u0000\u0000\u0000\u0000\u0000\u0000\u0000\u0000\u0000\u0000\u0000\u0000\u0000\u0000\u0000\u0000\u0000\u0000\u0000\u0000\u0000\u0000\u0000\u0000\u0000\u0000\u0000\u0000\u0000\u0000\u0000\u0000\u0000\u0000\u0000\u0000\u0000\u0000\u0000\u0000\u0000",
        "\u0000\u0000\u0000\u0000\u0000\u0000\u0000\u0000\u0000\u0000\u0000\u0000\u0000\u0000\u0000\u0000\u0000\u0000\u0000\u0000\u0000\u0000\u0000\u0000\u0000\u0000\u0000\u0000\u0000\u0000\u0000\u0000\u0000\u0000\u0000\u0000\u0000\u0000\u0000\u0000\u0000\u0000\u0000\u0000\u0000\u0000",
        "\u0000\u0000\u0000\u0000\u0000\u0000\u0000\u0000\u0000\u0000\u0000\u0000\u0000\u0000\u0000\u0000\u0000\u0000\u0000\u0000\u0000\u0000\u0000\u0000\u0000\u0000\u0000\u0000\u0000\u0000\u0000\u0000\u0000\u0000\u0000\u0000\u0000\u0000\u0000\u0000\u0000\u0000\u0000\u0000\u0000\u0000",
        "\u0000\u0000\u0000\u0000\u0000\u0000\u0000\u0000\u0000\u0000\u0000\u0000\u0000\u0000\u0000\u0000\u0000\u0000\u0000\u0000\u0000\u0000\u0000\u0000\u0000\u0000\u0000\u0000\u0000\u0000\u0000\u0000\u0000\u0000\u0000\u0000\u0000\u0000\u0000\u0000\u0000\u0000\u0000\u0000\u0000\u0000",
