{
  "AcquisitionMatrixPE": 70,
  "AcquisitionNumber": 1,
  "AcquisitionTime": "12:54:14.290000",
  "BandwidthPerPixelPhaseEncode": 51.948,
  "BaseResolution": 70,
  "BodyPartExamined": "HEAD",
  "CoilCombinationMethod": "Sum of Squares",
  "ConsistencyInfo": "N4_VE11C_LATEST_20160120",
  "ConversionSoftware": "dcm2niix",
  "ConversionSoftwareVersion": "v1.0.20220720",
  "DerivedVendorReportedEchoSpacing": 0.000550001,
  "DeviceSerialNumber": "66061",
  "DwellTime": 3.3e-06,
  "EchoTime": 0.022,
  "EchoTrainLength": 35,
  "EffectiveEchoSpacing": 0.000275,
  "FlipAngle": 90,
  "HeudiconvVersion": "1.1.1",
  "ImageOrientationPatientDICOM": [0.999574, 0.00656713, 0.0284371, -0.00122118, 0.982913, -0.184064],
  "ImageOrientationText": "Tra>Cor(-10.6)>Sag(1.7)",
  "ImageType": [
    "ORIGINAL",
    "PRIMARY",
    "M",
    "ND",
    "NORM",
    "MOSAIC"
],
  "ImagingFrequency": 123.254,
  "InPlanePhaseEncodingDirectionDICOM": "COL",
  "InstitutionAddress": "Street StreetNo,City/1c4204/,District,KR,ZIP",
  "InstitutionName": "SKKU",
  "InstitutionalDepartmentName": "Department",
  "MRAcquisitionType": "2D",
  "MagneticFieldStrength": 3,
  "Manufacturer": "Siemens",
  "ManufacturersModelName": "Prisma",
  "MatrixCoilMode": "GRAPPA",
  "Modality": "MR",
  "NonlinearGradientCorrection": false,
  "ParallelReductionFactorInPlane": 2,
  "PartialFourier": 1,
  "PatientPosition": "HFS",
  "PercentPhaseFOV": 100,
  "PercentSampling": 100,
  "PhaseEncodingDirection": "j-",
  "PhaseEncodingSteps": 70,
  "PhaseResolution": 1,
  "PixelBandwidth": 2165,
  "ProcedureStepDescription": "Head^PI:Others",
  "ProtocolName": "BOLD_ep2d_3x3x3_dimension1",
  "PulseSequenceDetails": "%SiemensSeq%\\ep2d_pace",
  "ReceiveCoilActiveElements": "HC1-7",
  "ReceiveCoilName": "HeadNeck_64",
  "ReconMatrixPE": 70,
  "RefLinesPE": 24,
  "RepetitionTime": 2,
  "SAR": 0.139402,
  "ScanOptions": "FS",
  "ScanningSequence": "EP",
  "SequenceName": "*epfid2d1_70",
  "SequenceVariant": "SK",
  "SeriesDescription": "BOLD_ep2d_3x3x3_dimension1",
  "SeriesNumber": 4,
  "ShimSetting": [5051, 3749, 4430, 439, -57, 83, 18, 46],
  "SliceThickness": 3,
  "SliceTiming": [0.99, 0, 1.0375, 0.0475, 1.085, 0.095, 1.1325, 0.1425, 1.1775, 0.1875, 1.225, 0.235, 1.2725, 0.2825, 1.32, 0.33, 1.3675, 0.3775, 1.415, 0.425, 1.46, 0.4725, 1.5075, 0.5175, 1.555, 0.565, 1.6025, 0.6125, 1.65, 0.66, 1.6975, 0.7075, 1.745, 0.755, 1.79, 0.8025, 1.8375, 0.8475, 1.885, 0.895, 1.9325, 0.9425],
  "SoftwareVersions": "syngo MR E11",
  "SpacingBetweenSlices": 3,
  "StationName": "AWP66061",
  "TaskName": "dimension",
  "TotalReadoutTime": 0.018975,
  "TxRefAmp": 252.743,
  "dcmmeta_affine": [
    [-2.9987220764160156, -0.003663542913272977, 0.08747999370098114, 106.26195526123047],
    [-0.019701402634382248, 2.948740243911743, -0.5518540740013123, -84.63433837890625],
    [0.08531134575605392, 0.5521934628486633, 2.9475080966949463, -70.06209564208984],
    [0.0, 0.0, 0.0, 1.0]
],
  "dcmmeta_reorient_transform": [
    [0.0, -1.0, 0.0, 69.0],
    [1.0, 0.0, 0.0, 0.0],
    [0.0, 0.0, -1.0, 41.0],
    [0.0, 0.0, 0.0, 1.0]
],
  "dcmmeta_shape": [70, 70, 42, 437],
  "dcmmeta_slice_dim": 2,
  "dcmmeta_version": 0.6,
  "global": {
    "const": {
      "AcquisitionMatrix": [70, 0, 0, 70],
      "AngioFlag": "N",
      "BitsAllocated": 16,
      "BitsStored": 12,
      "BodyPartExamined": "HEAD",
      "Columns": 490,
      "EchoNumbers": 1,
      "EchoTime": 22.0,
      "EchoTrainLength": 35,
      "FlipAngle": 90.0,
      "HighBit": 11,
      "ImageOrientationPatient": [0.99957401087885, 0.00656713390529, 0.0284371153221, -0.0012211809867, 0.98291340985816, -0.1840644926052],
      "ImagePositionPatient": [-738.5581335672, -719.5754597026, 186.93234117514],
      "ImageType": [
        "ORIGINAL",
        "PRIMARY",
        "M",
        "ND",
        "NORM",
        "MOSAIC"
],
      "ImagedNucleus": "1H",
      "ImagingFrequency": 123.254465,
      "InPlanePhaseEncodingDirection": "COL",
      "MRAcquisitionType": "2D",
      "MagneticFieldStrength": 3.0,
      "Manufacturer": "SIEMENS",
      "ManufacturerModelName": "Prisma",
      "Modality": "MR",
      "NumberOfAverages": 1.0,
      "NumberOfPhaseEncodingSteps": 70,
      "PercentPhaseFieldOfView": 100.0,
      "PercentSampling": 100.0,
      "PerformedProcedureStepStartTime": "124525.455000",
      "PhotometricInterpretation": "MONOCHROME2",
      "PixelBandwidth": 2165.0,
      "PixelRepresentation": 0,
      "PixelSpacing": [3.0, 3.0],
      "ProtocolName": "BOLD_ep2d_3x3x3_dimension1",
      "RepetitionTime": 2000.0,
      "Rows": 490,
      "SAR": 0.13940203468118,
      "SamplesPerPixel": 1,
      "ScanOptions": "FS",
      "ScanningSequence": "EP",
      "SequenceName": "*epfid2d1_70",
      "SequenceVariant": "SK",
      "SeriesDescription": "BOLD_ep2d_3x3x3_dimension1",
      "SeriesNumber": 4,
      "SeriesTime": "125458.283000",
      "SliceLocation": 72.831005555865,
      "SliceThickness": 3.0,
      "SmallestImagePixelValue": 0,
      "SoftwareVersions": "syngo MR E11",
      "SpacingBetweenSlices": 3.0000000232218,
      "SpecificCharacterSet": "ISO_IR 100",
      "StudyID": "1",
      "StudyTime": "124525.333000",
      "TransmitCoilName": "Body",
      "VariableFlipAngleFlag": "N",
      "WindowCenterWidthExplanation": "Algo1",
      "dBdt": 0.0},
    "slices": {}
  },
  "time": {
    "samples": {
      "AcquisitionNumber": [1, 2, 3, 4, 5, 6, 7, 8, 9, 10, 11, 12, 13, 14, 15, 16, 17, 18, 19, 20, 21, 22, 23, 24, 25, 26, 27, 28, 29, 30, 31, 32, 33, 34, 35, 36, 37, 38, 39, 40, 41, 42, 43, 44, 45, 46, 47, 48, 49, 50, 51, 52, 53, 54, 55, 56, 57, 58, 59, 60, 61, 62, 63, 64, 65, 66, 67, 68, 69, 70, 71, 72, 73, 74, 75, 76, 77, 78, 79, 80, 81, 82, 83, 84, 85, 86, 87, 88, 89, 90, 91, 92, 93, 94, 95, 96, 97, 98, 99, 100, 101, 102, 103, 104, 105, 106, 107, 108, 109, 110, 111, 112, 113, 114, 115, 116, 117, 118, 119, 120, 121, 122, 123, 124, 125, 126, 127, 128, 129, 130, 131, 132, 133, 134, 135, 136, 137, 138, 139, 140, 141, 142, 143, 144, 145, 146, 147, 148, 149, 150, 151, 152, 153, 154, 155, 156, 157, 158, 159, 160, 161, 162, 163, 164, 165, 166, 167, 168, 169, 170, 171, 172, 173, 174, 175, 176, 177, 178, 179, 180, 181, 182, 183, 184, 185, 186, 187, 188, 189, 190, 191, 192, 193, 194, 195, 196, 197, 198, 199, 200, 201, 202, 203, 204, 205, 206, 207, 208, 209, 210, 211, 212, 213, 214, 215, 216, 217, 218, 219, 220, 221, 222, 223, 224, 225, 226, 227, 228, 229, 230, 231, 232, 233, 234, 235, 236, 237, 238, 239, 240, 241, 242, 243, 244, 245, 246, 247, 248, 249, 250, 251, 252, 253, 254, 255, 256, 257, 258, 259, 260, 261, 262, 263, 264, 265, 266, 267, 268, 269, 270, 271, 272, 273, 274, 275, 276, 277, 278, 279, 280, 281, 282, 283, 284, 285, 286, 287, 288, 289, 290, 291, 292, 293, 294, 295, 296, 297, 298, 299, 300, 301, 302, 303, 304, 305, 306, 307, 308, 309, 310, 311, 312, 313, 314, 315, 316, 317, 318, 319, 320, 321, 322, 323, 324, 325, 326, 327, 328, 329, 330, 331, 332, 333, 334, 335, 336, 337, 338, 339, 340, 341, 342, 343, 344, 345, 346, 347, 348, 349, 350, 351, 352, 353, 354, 355, 356, 357, 358, 359, 360, 361, 362, 363, 364, 365, 366, 367, 368, 369, 370, 371, 372, 373, 374, 375, 376, 377, 378, 379, 380, 381, 382, 383, 384, 385, 386, 387, 388, 389, 390, 391, 392, 393, 394, 395, 396, 397, 398, 399, 400, 401, 402, 403, 404, 405, 406, 407, 408, 409, 410, 411, 412, 413, 414, 415, 416, 417, 418, 419, 420, 421, 422, 423, 424, 425, 426, 427, 428, 429, 430, 431, 432, 433, 434, 435, 436, 437],
      "AcquisitionTime": ["125414.290000", "125416.290000", "125418.290000", "125420.290000", "125422.290000", "125424.290000", "125426.290000", "125428.290000", "125430.290000", "125432.290000", "125434.290000", "125436.290000", "125438.290000", "125440.290000", "125442.290000", "125444.290000", "125446.290000", "125448.290000", "125450.290000", "125452.290000", "125454.290000", "125456.290000", "125458.290000", "125500.290000", "125502.290000", "125504.290000", "125506.290000", "125508.290000", "125510.290000", "125512.290000", "125514.290000", "125516.290000", "125518.290000", "125520.290000", "125522.290000", "125524.290000", "125526.290000", "125528.290000", "125530.290000", "125532.290000", "125534.290000", "125536.290000", "125538.290000", "125540.290000", "125542.290000", "125544.290000", "125546.290000", "125548.290000", "125550.290000", "125552.290000", "125554.290000", "125556.290000", "125558.290000", "125600.290000", "125602.290000", "125604.290000", "125606.290000", "125608.290000", "125610.290000", "125612.290000", "125614.290000", "125616.290000", "125618.290000", "125620.290000", "125622.290000", "125624.290000", "125626.290000", "125628.290000", "125630.290000", "125632.290000", "125634.290000", "125636.290000", "125638.290000", "125640.290000", "125642.290000", "125644.290000", "125646.290000", "125648.290000", "125650.290000", "125652.290000", "125654.290000", "125656.290000", "125658.290000", "125700.290000", "125702.290000", "125704.290000", "125706.290000", "125708.290000", "125710.290000", "125712.290000", "125714.290000", "125716.290000", "125718.290000", "125720.290000", "125722.290000", "125724.290000", "125726.290000", "125728.290000", "125730.290000", "125732.290000", "125734.290000", "125736.290000", "125738.290000", "125740.290000", "125742.290000", "125744.290000", "125746.290000", "125748.290000", "125750.290000", "125752.290000", "125754.290000", "125756.290000", "125758.290000", "125800.290000", "125802.290000", "125804.290000", "125806.290000", "125808.290000", "125810.290000", "125812.290000", "125814.290000", "125816.290000", "125818.290000", "125820.290000", "125822.290000", "125824.290000", "125826.290000", "125828.290000", "125830.290000", "125832.290000", "125834.290000", "125836.290000", "125838.290000", "125840.290000", "125842.290000", "125844.290000", "125846.290000", "125848.290000", "125850.290000", "125852.290000", "125854.290000", "125856.290000", "125858.290000", "125900.290000", "125902.290000", "125904.290000", "125906.290000", "125908.290000", "125910.290000", "125912.290000", "125914.290000", "125916.290000", "125918.290000", "125920.290000", "125922.290000", "125924.290000", "125926.290000", "125928.290000", "125930.290000", "125932.290000", "125934.290000", "125936.290000", "125938.290000", "125940.290000", "125942.290000", "125944.290000", "125946.290000", "125948.290000", "125950.290000", "125952.290000", "125954.290000", "125956.290000", "125958.290000", "130000.290000", "130002.290000", "130004.290000", "130006.290000", "130008.290000", "130010.290000", "130012.290000", "130014.290000", "130016.290000", "130018.290000", "130020.290000", "130022.290000", "130024.290000", "130026.290000", "130028.290000", "130030.290000", "130032.290000", "130034.290000", "130036.290000", "130038.290000", "130040.290000", "130042.290000", "130044.290000", "130046.290000", "130048.290000", "130050.290000", "130052.290000", "130054.290000", "130056.290000", "130058.290000", "130100.290000", "130102.290000", "130104.290000", "130106.290000", "130108.290000", "130110.290000", "130112.290000", "130114.290000", "130116.290000", "130118.290000", "130120.290000", "130122.290000", "130124.290000", "130126.290000", "130128.290000", "130130.290000", "130132.290000", "130134.290000", "130136.290000", "130138.290000", "130140.290000", "130142.290000", "130144.290000", "130146.290000", "130148.290000", "130150.290000", "130152.290000", "130154.290000", "130156.290000", "130158.290000", "130200.290000", "130202.290000", "130204.290000", "130206.290000", "130208.290000", "130210.290000", "130212.290000", "130214.290000", "130216.290000", "130218.290000", "130220.290000", "130222.290000", "130224.290000", "130226.290000", "130228.290000", "130230.290000", "130232.290000", "130234.290000", "130236.290000", "130238.290000", "130240.290000", "130242.290000", "130244.290000", "130246.290000", "130248.290000", "130250.290000", "130252.290000", "130254.290000", "130256.290000", "130258.290000", "130300.290000", "130302.290000", "130304.290000", "130306.290000", "130308.290000", "130310.290000", "130312.290000", "130314.290000", "130316.290000", "130318.290000", "130320.290000", "130322.290000", "130324.290000", "130326.290000", "130328.290000", "130330.290000", "130332.290000", "130334.290000", "130336.290000", "130338.290000", "130340.290000", "130342.290000", "130344.290000", "130346.290000", "130348.290000", "130350.290000", "130352.290000", "130354.290000", "130356.290000", "130358.290000", "130400.290000", "130402.290000", "130404.290000", "130406.290000", "130408.290000", "130410.290000", "130412.290000", "130414.290000", "130416.290000", "130418.290000", "130420.290000", "130422.290000", "130424.290000", "130426.290000", "130428.290000", "130430.290000", "130432.290000", "130434.290000", "130436.290000", "130438.290000", "130440.290000", "130442.290000", "130444.290000", "130446.290000", "130448.290000", "130450.290000", "130452.290000", "130454.290000", "130456.290000", "130458.290000", "130500.290000", "130502.290000", "130504.290000", "130506.290000", "130508.290000", "130510.290000", "130512.290000", "130514.290000", "130516.290000", "130518.290000", "130520.290000", "130522.290000", "130524.290000", "130526.290000", "130528.290000", "130530.290000", "130532.290000", "130534.290000", "130536.290000", "130538.290000", "130540.290000", "130542.290000", "130544.290000", "130546.290000", "130548.290000", "130550.290000", "130552.290000", "130554.290000", "130556.290000", "130558.290000", "130600.290000", "130602.290000", "130604.290000", "130606.290000", "130608.290000", "130610.290000", "130612.290000", "130614.290000", "130616.290000", "130618.290000", "130620.290000", "130622.290000", "130624.290000", "130626.290000", "130628.290000", "130630.290000", "130632.290000", "130634.290000", "130636.290000", "130638.290000", "130640.290000", "130642.290000", "130644.290000", "130646.290000", "130648.290000", "130650.290000", "130652.290000", "130654.290000", "130656.290000", "130658.290000", "130700.290000", "130702.290000", "130704.290000", "130706.290000", "130708.290000", "130710.290000", "130712.290000", "130714.290000", "130716.290000", "130718.290000", "130720.290000", "130722.290000", "130724.290000", "130726.290000", "130728.290000", "130730.290000", "130732.290000", "130734.290000", "130736.290000", "130738.290000", "130740.290000", "130742.290000", "130744.290000", "130746.290000", "130748.290000", "130750.290000", "130752.290000", "130754.290000", "130756.290000", "130758.290000", "130800.290000", "130802.290000", "130804.290000", "130806.290000", "130808.290000", "130810.290000", "130812.290000", "130814.290000", "130816.290000", "130818.290000", "130820.290000", "130822.290000", "130824.290000", "130826.290000", "130828.290000", "130830.290000", "130832.290000", "130834.290000", "130836.290000", "130838.290000", "130840.290000", "130842.290000", "130844.290000", "130846.290000"],
      "ContentTime": ["125458.286000", "125458.297000", "125458.300000", "125458.303000", "125458.311000", "125458.314000", "125458.317000", "125458.319000", "125458.322000", "125458.325000", "125458.328000", "125458.330000", "125458.342000", "125458.345000", "125458.356000", "125458.358000", "125458.361000", "125458.364000", "125458.367000", "125458.369000", "125458.372000", "125458.375000", "125538.282000", "125538.285000", "125538.287000", "125538.290000", "125538.293000", "125538.296000", "125538.299000", "125538.301000", "125538.304000", "125538.307000", "125538.310000", "125538.313000", "125538.315000", "125538.318000", "125538.321000", "125538.324000", "125538.327000", "125538.329000", "125538.332000", "125538.335000", "125618.281000", "125618.289000", "125618.292000", "125618.295000", "125618.298000", "125618.301000", "125618.303000", "125618.306000", "125618.309000", "125618.312000", "125618.318000", "125618.320000", "125618.323000", "125618.326000", "125618.329000", "125618.331000", "125618.334000", "125618.337000", "125618.340000", "125618.342000", "125658.281000", "125658.284000", "125658.287000", "125658.289000", "125658.299000", "125658.302000", "125658.305000", "125658.307000", "125658.310000", "125658.313000", "125658.316000", "125658.318000", "125658.321000", "125658.324000", "125658.327000", "125658.329000", "125658.332000", "125658.335000", "125658.338000", "125658.340000", "125738.282000", "125738.285000", "125738.287000", "125738.290000", "125738.293000", "125738.301000", "125738.303000", "125738.306000", "125738.309000", "125738.312000", "125738.314000", "125738.317000", "125738.320000", "125738.323000", "125738.326000", "125738.328000", "125738.331000", "125738.334000", "125738.336000", "125738.339000", "125818.282000", "125818.285000", "125818.287000", "125818.290000", "125818.293000", "125818.302000", "125818.305000", "125818.308000", "125818.311000", "125818.313000", "125818.323000", "125818.325000", "125818.328000", "125818.331000", "125818.334000", "125818.336000", "125818.342000", "125818.345000", "125818.348000", "125818.351000", "125858.281000", "125858.284000", "125858.287000", "125858.289000", "125858.292000", "125858.295000", "125858.298000", "125858.300000", "125858.303000", "125858.306000", "125858.309000", "125858.312000", "125858.315000", "125858.317000", "125858.327000", "125858.329000", "125858.332000", "125858.335000", "125858.338000", "125858.341000", "125938.282000", "125938.285000", "125938.287000", "125938.290000", "125938.301000", "125938.304000", "125938.307000", "125938.309000", "125938.312000", "125938.315000", "125938.318000", "125938.320000", "125938.323000", "125938.326000", "125938.329000", "125938.331000", "125938.336000", "125938.339000", "125938.342000", "125938.344000", "130018.282000", "130018.298000", "130018.301000", "130018.303000", "130018.306000", "130018.309000", "130018.312000", "130018.314000", "130018.317000", "130018.320000", "130018.323000", "130018.326000", "130018.328000", "130018.331000", "130018.334000", "130018.337000", "130018.340000", "130018.342000", "130018.345000", "130018.348000", "130058.281000", "130058.284000", "130058.286000", "130058.289000", "130058.292000", "130058.295000", "130058.298000", "130058.300000", "130058.303000", "130058.306000", "130058.309000", "130058.311000", "130058.314000", "130058.317000", "130058.320000", "130058.323000", "130058.331000", "130058.333000", "130058.336000", "130058.339000", "130138.282000", "130138.285000", "130138.288000", "130138.290000", "130138.293000", "130138.296000", "130138.299000", "130138.302000", "130138.304000", "130138.307000", "130138.310000", "130138.312000", "130138.315000", "130138.318000", "130138.321000", "130138.324000", "130138.326000", "130138.329000", "130138.332000", "130138.346000", "130218.282000", "130218.285000", "130218.287000", "130218.290000", "130218.293000", "130218.296000", "130218.298000", "130218.301000", "130218.304000", "130218.307000", "130218.310000", "130218.312000", "130218.315000", "130218.318000", "130218.321000", "130218.324000", "130218.327000", "130218.329000", "130218.332000", "130218.335000", "130258.282000", "130258.285000", "130258.287000", "130258.290000", "130258.293000", "130258.296000", "130258.299000", "130258.302000", "130258.304000", "130258.307000", "130258.310000", "130258.313000", "130258.325000", "130258.328000", "130258.330000", "130258.333000", "130258.336000", "130258.339000", "130258.341000", "130258.344000", "130338.281000", "130338.284000", "130338.286000", "130338.293000", "130338.296000", "130338.299000", "130338.302000", "130338.304000", "130338.307000", "130338.310000", "130338.313000", "130338.315000", "130338.318000", "130338.321000", "130338.324000", "130338.326000", "130338.329000", "130338.332000", "130338.335000", "130338.337000", "130418.282000", "130418.285000", "130418.287000", "130418.290000", "130418.293000", "130418.296000", "130418.299000", "130418.301000", "130418.304000", "130418.307000", "130418.310000", "130418.312000", "130418.315000", "130418.318000", "130418.321000", "130418.330000", "130418.333000", "130418.335000", "130418.338000", "130418.341000", "130458.282000", "130458.285000", "130458.287000", "130458.290000", "130458.293000", "130458.296000", "130458.299000", "130458.301000", "130458.304000", "130458.307000", "130458.310000", "130458.312000", "130458.315000", "130458.324000", "130458.327000", "130458.329000", "130458.332000", "130458.335000", "130458.338000", "130458.340000", "130538.281000", "130538.284000", "130538.286000", "130538.289000", "130538.292000", "130538.295000", "130538.298000", "130538.300000", "130538.303000", "130538.306000", "130538.309000", "130538.311000", "130538.314000", "130538.317000", "130538.320000", "130538.323000", "130538.325000", "130538.328000", "130538.331000", "130538.334000", "130618.282000", "130618.285000", "130618.287000", "130618.290000", "130618.293000", "130618.296000", "130618.298000", "130618.301000", "130618.304000", "130618.307000", "130618.309000", "130618.312000", "130618.315000", "130618.318000", "130618.320000", "130618.323000", "130618.326000", "130618.329000", "130618.331000", "130618.334000", "130658.282000", "130658.285000", "130658.298000", "130658.301000", "130658.304000", "130658.307000", "130658.309000", "130658.312000", "130658.315000", "130658.318000", "130658.321000", "130658.324000", "130658.327000", "130658.330000", "130658.332000", "130658.335000", "130658.338000", "130658.340000", "130658.343000", "130658.346000", "130738.282000", "130738.285000", "130738.288000", "130738.291000", "130738.293000", "130738.296000", "130738.299000", "130738.302000", "130738.305000", "130738.307000", "130738.310000", "130738.313000", "130738.316000", "130738.318000", "130738.321000", "130738.324000", "130738.329000", "130738.332000", "130738.334000", "130738.337000", "130818.281000", "130818.284000", "130818.287000", "130818.289000", "130818.292000", "130818.295000", "130818.298000", "130818.300000", "130818.303000", "130818.306000", "130818.309000", "130818.311000", "130818.314000", "130818.317000", "130818.320000", "130818.322000", "130818.325000", "130818.328000", "130818.331000", "130818.333000", "130847.850000", "130847.853000", "130847.856000", "130847.859000", "130847.862000", "130847.865000", "130847.868000", "130847.870000", "130847.873000", "130847.876000", "130847.879000", "130847.884000", "130847.891000", "130847.894000", "130847.898000"],
      "DataSetTrailingPadding": [
        "\u0000\u0000\u0000\u0000\u0000\u0000\u0000\u0000\u0000\u0000\u0000\u0000\u0000\u0000\u0000\u0000\u0000\u0000\u0000\u0000\u0000\u0000\u0000\u0000\u0000\u0000\u0000\u0000\u0000\u0000\u0000\u0000\u0000\u0000\u0000\u0000\u0000\u0000\u0000\u0000\u0000\u0000\u0000\u0000\u0000\u0000\u0000\u0000\u0000\u0000\u0000\u0000\u0000\u0000\u0000\u0000\u0000\u0000\u0000\u0000\u0000\u0000\u0000\u0000\u0000\u0000\u0000\u0000\u0000\u0000\u0000\u0000\u0000\u0000\u0000\u0000\u0000\u0000\u0000\u0000\u0000\u0000\u0000\u0000\u0000\u0000\u0000\u0000\u0000\u0000\u0000\u0000\u0000\u0000\u0000\u0000\u0000\u0000\u0000\u0000\u0000\u0000\u0000\u0000\u0000\u0000\u0000\u0000\u0000\u0000\u0000\u0000\u0000\u0000\u0000\u0000\u0000\u0000\u0000\u0000\u0000\u0000\u0000\u0000\u0000\u0000\u0000\u0000\u0000\u0000\u0000\u0000\u0000\u0000\u0000\u0000\u0000\u0000\u0000\u0000\u0000\u0000\u0000\u0000\u0000\u0000\u0000\u0000\u0000\u0000\u0000\u0000\u0000\u0000\u0000\u0000\u0000\u0000\u0000\u0000\u0000\u0000\u0000\u0000\u0000\u0000\u0000\u0000\u0000\u0000\u0000\u0000\u0000\u0000\u0000\u0000\u0000\u0000\u0000\u0000\u0000\u0000\u0000\u0000\u0000\u0000\u0000\u0000\u0000\u0000\u0000\u0000\u0000\u0000\u0000\u0000\u0000\u0000\u0000\u0000\u0000\u0000\u0000\u0000\u0000\u0000\u0000\u0000\u0000\u0000\u0000\u0000\u0000\u0000\u0000\u0000\u0000\u0000\u0000\u0000\u0000\u0000\u0000\u0000\u0000\u0000\u0000\u0000\u0000\u0000\u0000\u0000\u0000\u0000\u0000\u0000\u0000\u0000\u0000\u0000\u0000\u0000\u0000\u0000\u0000\u0000\u0000\u0000\u0000\u0000\u0000\u0000\u0000\u0000\u0000\u0000\u0000\u0000\u0000\u0000\u0000\u0000\u0000\u0000\u0000\u0000\u0000\u0000\u0000\u0000\u0000\u0000\u0000\u0000\u0000\u0000\u0000\u0000\u0000\u0000\u0000\u0000\u0000\u0000\u0000\u0000\u0000\u0000\u0000\u0000\u0000\u0000\u0000\u0000\u0000\u0000\u0000\u0000\u0000\u0000\u0000\u0000\u0000\u0000\u0000\u0000",
        "\u0000\u0000\u0000\u0000\u0000\u0000\u0000\u0000\u0000\u0000\u0000\u0000\u0000\u0000\u0000\u0000\u0000\u0000\u0000\u0000\u0000\u0000\u0000\u0000\u0000\u0000\u0000\u0000\u0000\u0000\u0000\u0000\u0000\u0000\u0000\u0000\u0000\u0000\u0000\u0000\u0000\u0000\u0000\u0000\u0000\u0000\u0000\u0000\u0000\u0000\u0000\u0000\u0000\u0000\u0000\u0000\u0000\u0000\u0000\u0000\u0000\u0000\u0000\u0000\u0000\u0000\u0000\u0000\u0000\u0000\u0000\u0000\u0000\u0000\u0000\u0000\u0000\u0000\u0000\u0000\u0000\u0000\u0000\u0000\u0000\u0000\u0000\u0000\u0000\u0000\u0000\u0000\u0000\u0000\u0000\u0000\u0000\u0000\u0000\u0000\u0000\u0000\u0000\u0000\u0000\u0000\u0000\u0000\u0000\u0000\u0000\u0000\u0000\u0000\u0000\u0000\u0000\u0000\u0000\u0000\u0000\u0000\u0000\u0000\u0000\u0000\u0000\u0000\u0000\u0000\u0000\u0000\u0000\u0000\u0000\u0000\u0000\u0000\u0000\u0000\u0000\u0000\u0000\u0000\u0000\u0000\u0000\u0000\u0000\u0000\u0000\u0000\u0000\u0000\u0000\u0000\u0000\u0000\u0000\u0000\u0000\u0000\u0000\u0000\u0000\u0000\u0000\u0000\u0000\u0000\u0000\u0000\u0000\u0000\u0000\u0000\u0000\u0000\u0000\u0000\u0000\u0000\u0000\u0000\u0000\u0000\u0000\u0000\u0000\u0000\u0000\u0000\u0000\u0000\u0000\u0000\u0000\u0000\u0000\u0000\u0000\u0000\u0000\u0000\u0000\u0000\u0000\u0000\u0000\u0000\u0000\u0000\u0000\u0000\u0000\u0000\u0000\u0000\u0000\u0000\u0000\u0000\u0000\u0000\u0000\u0000\u0000\u0000\u0000\u0000\u0000\u0000\u0000\u0000\u0000\u0000\u0000\u0000\u0000\u0000\u0000\u0000\u0000\u0000\u0000\u0000\u0000\u0000\u0000\u0000\u0000\u0000\u0000\u0000\u0000\u0000\u0000\u0000\u0000\u0000\u0000\u0000\u0000\u0000\u0000\u0000\u0000\u0000\u0000\u0000\u0000\u0000\u0000\u0000\u0000\u0000\u0000\u0000\u0000\u0000\u0000\u0000\u0000\u0000\u0000\u0000\u0000\u0000\u0000\u0000\u0000\u0000\u0000\u0000\u0000\u0000\u0000\u0000\u0000\u0000\u0000\u0000\u0000\u0000",
        "\u0000\u0000\u0000\u0000\u0000\u0000\u0000\u0000\u0000\u0000\u0000\u0000\u0000\u0000\u0000\u0000\u0000\u0000\u0000\u0000\u0000\u0000\u0000\u0000\u0000\u0000\u0000\u0000\u0000\u0000\u0000\u0000\u0000\u0000\u0000\u0000\u0000\u0000\u0000\u0000\u0000\u0000\u0000\u0000\u0000\u0000\u0000\u0000\u0000\u0000\u0000\u0000\u0000\u0000\u0000\u0000\u0000\u0000\u0000\u0000\u0000\u0000\u0000\u0000\u0000\u0000\u0000\u0000\u0000\u0000\u0000\u0000\u0000\u0000\u0000\u0000\u0000\u0000\u0000\u0000\u0000\u0000\u0000\u0000\u0000\u0000\u0000\u0000\u0000\u0000\u0000\u0000\u0000\u0000\u0000\u0000\u0000\u0000\u0000\u0000\u0000\u0000\u0000\u0000\u0000\u0000\u0000\u0000\u0000\u0000\u0000\u0000\u0000\u0000\u0000\u0000\u0000\u0000\u0000\u0000\u0000\u0000\u0000\u0000\u0000\u0000\u0000\u0000\u0000\u0000\u0000\u0000\u0000\u0000\u0000\u0000\u0000\u0000\u0000\u0000\u0000\u0000\u0000\u0000\u0000\u0000\u0000\u0000\u0000\u0000\u0000\u0000\u0000\u0000\u0000\u0000\u0000\u0000\u0000\u0000\u0000\u0000\u0000\u0000\u0000\u0000\u0000\u0000\u0000\u0000\u0000\u0000\u0000\u0000\u0000\u0000\u0000\u0000\u0000\u0000\u0000\u0000\u0000\u0000\u0000\u0000\u0000\u0000\u0000\u0000\u0000\u0000\u0000\u0000\u0000\u0000\u0000\u0000\u0000\u0000\u0000\u0000\u0000\u0000\u0000\u0000\u0000\u0000\u0000\u0000\u0000\u0000\u0000\u0000\u0000\u0000\u0000\u0000\u0000\u0000\u0000\u0000\u0000\u0000\u0000\u0000\u0000\u0000\u0000\u0000\u0000\u0000\u0000\u0000\u0000\u0000\u0000\u0000\u0000\u0000\u0000\u0000\u0000\u0000\u0000\u0000\u0000\u0000\u0000\u0000\u0000\u0000\u0000\u0000\u0000\u0000\u0000\u0000\u0000\u0000\u0000\u0000\u0000\u0000\u0000\u0000\u0000\u0000\u0000\u0000\u0000\u0000\u0000\u0000\u0000\u0000\u0000\u0000\u0000\u0000\u0000\u0000\u0000\u0000\u0000\u0000\u0000\u0000\u0000\u0000\u0000\u0000\u0000\u0000\u0000\u0000\u0000\u0000\u0000\u0000\u0000\u0000\u0000\u0000",
        "\u0000\u0000\u0000\u0000\u0000\u0000\u0000\u0000\u0000\u0000\u0000\u0000\u0000\u0000\u0000\u0000\u0000\u0000\u0000\u0000\u0000\u0000\u0000\u0000\u0000\u0000\u0000\u0000\u0000\u0000\u0000\u0000\u0000\u0000\u0000\u0000\u0000\u0000\u0000\u0000\u0000\u0000\u0000\u0000\u0000\u0000\u0000\u0000\u0000\u0000\u0000\u0000\u0000\u0000\u0000\u0000\u0000\u0000\u0000\u0000\u0000\u0000\u0000\u0000\u0000\u0000\u0000\u0000\u0000\u0000\u0000\u0000\u0000\u0000\u0000\u0000\u0000\u0000\u0000\u0000\u0000\u0000\u0000\u0000\u0000\u0000\u0000\u0000\u0000\u0000\u0000\u0000\u0000\u0000\u0000\u0000\u0000\u0000\u0000\u0000\u0000\u0000\u0000\u0000\u0000\u0000\u0000\u0000\u0000\u0000\u0000\u0000\u0000\u0000\u0000\u0000\u0000\u0000\u0000\u0000\u0000\u0000\u0000\u0000\u0000\u0000\u0000\u0000\u0000\u0000\u0000\u0000\u0000\u0000\u0000\u0000\u0000\u0000\u0000\u0000\u0000\u0000\u0000\u0000\u0000\u0000\u0000\u0000\u0000\u0000\u0000\u0000\u0000\u0000\u0000\u0000\u0000\u0000\u0000\u0000\u0000\u0000\u0000\u0000\u0000\u0000\u0000\u0000\u0000\u0000\u0000\u0000\u0000\u0000\u0000\u0000\u0000\u0000\u0000\u0000\u0000\u0000\u0000\u0000\u0000\u0000\u0000\u0000\u0000\u0000\u0000\u0000\u0000\u0000\u0000\u0000\u0000\u0000\u0000\u0000\u0000\u0000\u0000\u0000\u0000\u0000\u0000\u0000\u0000\u0000\u0000\u0000\u0000\u0000\u0000\u0000\u0000\u0000\u0000\u0000\u0000\u0000\u0000\u0000\u0000\u0000\u0000\u0000\u0000\u0000\u0000\u0000\u0000\u0000\u0000\u0000\u0000\u0000\u0000\u0000\u0000\u0000\u0000\u0000\u0000\u0000\u0000\u0000\u0000\u0000\u0000\u0000\u0000\u0000\u0000\u0000\u0000\u0000\u0000\u0000\u0000\u0000\u0000\u0000\u0000\u0000\u0000\u0000\u0000\u0000\u0000\u0000\u0000\u0000\u0000\u0000\u0000\u0000\u0000\u0000\u0000\u0000\u0000\u0000\u0000\u0000\u0000\u0000\u0000\u0000\u0000\u0000\u0000\u0000\u0000\u0000\u0000\u0000\u0000\u0000\u0000\u0000\u0000\u0000",
