{
  "AcquisitionMatrixPE": 70,
  "AcquisitionNumber": 1,
  "AcquisitionTime": "11:18:41.950000",
  "BandwidthPerPixelPhaseEncode": 51.948,
  "BaseResolution": 70,
  "BodyPartExamined": "HEAD",
  "CoilCombinationMethod": "Sum of Squares",
  "ConsistencyInfo": "N4_VE11C_LATEST_20160120",
  "ConversionSoftware": "dcm2niix",
  "ConversionSoftwareVersion": "v1.0.20220720",
  "DerivedVendorReportedEchoSpacing": 0.000550001,
  "DeviceSerialNumber": "66061",
  "DwellTime": 3.3e-06,
  "EchoTime": 0.022,
  "EchoTrainLength": 35,
  "EffectiveEchoSpacing": 0.000275,
  "FlipAngle": 90,
  "HeudiconvVersion": "1.1.1",
  "ImageOrientationPatientDICOM": [0.999986, 0.000254154, -0.00528352, -0.00122172, 0.982935, -0.183947],
  "ImageOrientationText": "Tra>Cor(-10.6)>Sag(-0.3)",
  "ImageType": [
    "ORIGINAL",
    "PRIMARY",
    "M",
    "ND",
    "NORM",
    "MOSAIC"
],
  "ImagingFrequency": 123.255,
  "InPlanePhaseEncodingDirectionDICOM": "COL",
  "InstitutionAddress": "Street StreetNo,City/1c4204/,District,KR,ZIP",
  "InstitutionName": "SKKU",
  "InstitutionalDepartmentName": "Department",
  "MRAcquisitionType": "2D",
  "MagneticFieldStrength": 3,
  "Manufacturer": "Siemens",
  "ManufacturersModelName": "Prisma",
  "MatrixCoilMode": "GRAPPA",
  "Modality": "MR",
  "NonlinearGradientCorrection": false,
  "ParallelReductionFactorInPlane": 2,
  "PartialFourier": 1,
  "PatientPosition": "HFS",
  "PercentPhaseFOV": 100,
  "PercentSampling": 100,
  "PhaseEncodingDirection": "j-",
  "PhaseEncodingSteps": 70,
  "PhaseResolution": 1,
  "PixelBandwidth": 2165,
  "ProcedureStepDescription": "Head^PI:Others",
  "ProtocolName": "BOLD_ep2d_3x3x3_response2",
  "PulseSequenceDetails": "%SiemensSeq%\\ep2d_pace",
  "ReceiveCoilActiveElements": "HC1-7",
  "ReceiveCoilName": "HeadNeck_64",
  "ReconMatrixPE": 70,
  "RefLinesPE": 24,
  "RepetitionTime": 2,
  "SAR": 0.163561,
  "ScanOptions": "FS",
  "ScanningSequence": "EP",
  "SequenceName": "*epfid2d1_70",
  "SequenceVariant": "SK",
  "SeriesDescription": "BOLD_ep2d_3x3x3_response2",
  "SeriesNumber": 9,
  "ShimSetting": [5034, 3716, 4454, 325, -73, -49, 58, 58],
  "SliceThickness": 3,
  "SliceTiming": [0.9875, 0, 1.035, 0.045, 1.0825, 0.0925, 1.13, 0.14, 1.1775, 0.1875, 1.225, 0.235, 1.2725, 0.2825, 1.3175, 0.33, 1.365, 0.375, 1.4125, 0.4225, 1.46, 0.47, 1.5075, 0.5175, 1.555, 0.565, 1.6025, 0.6125, 1.6475, 0.66, 1.695, 0.705, 1.7425, 0.7525, 1.79, 0.8, 1.8375, 0.8475, 1.885, 0.895, 1.9325, 0.9425],
  "SoftwareVersions": "syngo MR E11",
  "SpacingBetweenSlices": 3,
  "StationName": "AWP66061",
  "TaskName": "response",
  "TotalReadoutTime": 0.018975,
  "TxRefAmp": 273.835,
  "dcmmeta_affine": [
    [-2.999958038330078, -0.003665172727778554, -0.015439820475876331, 102.60472106933594],
    [-0.0007624623831361532, 2.948806047439575, -0.5518540740013123, -81.68498229980469],
    [-0.015850558876991272, 0.5518423914909363, 2.948765516281128, -65.92167663574219],
    [0.0, 0.0, 0.0, 1.0]
],
  "dcmmeta_reorient_transform": [
    [0.0, -1.0, 0.0, 69.0],
    [1.0, 0.0, 0.0, 0.0],
    [0.0, 0.0, -1.0, 41.0],
    [0.0, 0.0, 0.0, 1.0]
],
  "dcmmeta_shape": [70, 70, 42, 341],
  "dcmmeta_slice_dim": 2,
  "dcmmeta_version": 0.6,
  "global": {
    "const": {
      "AcquisitionMatrix": [70, 0, 0, 70],
      "AngioFlag": "N",
      "BitsAllocated": 16,
      "BitsStored": 12,
      "BodyPartExamined": "HEAD",
      "Columns": 490,
      "EchoNumbers": 1,
      "EchoTime": 22.0,
      "EchoTrainLength": 35,
      "FlipAngle": 90.0,
      "HighBit": 11,
      "ImageOrientationPatient": [0.99998600981602, 0.00025415412139, -0.0052835194625, -0.0012217242077, 0.98293531554454, -0.1839474730604],
      "ImagePositionPatient": [-730.94029451978, -718.5659778482, 212.27036452633],
      "ImageType": [
        "ORIGINAL",
        "PRIMARY",
        "M",
        "ND",
        "NORM",
        "MOSAIC"
],
      "ImagedNucleus": "1H",
      "ImagingFrequency": 123.254636,
      "InPlanePhaseEncodingDirection": "COL",
      "MRAcquisitionType": "2D",
      "MagneticFieldStrength": 3.0,
      "Manufacturer": "SIEMENS",
      "ManufacturerModelName": "Prisma",
      "Modality": "MR",
      "NumberOfAverages": 1.0,
      "NumberOfPhaseEncodingSteps": 70,
      "PercentPhaseFieldOfView": 100.0,
      "PercentSampling": 100.0,
      "PerformedProcedureStepStartTime": "103520.398000",
      "PhotometricInterpretation": "MONOCHROME2",
      "PixelBandwidth": 2165.0,
      "PixelRepresentation": 0,
      "PixelSpacing": [3.0, 3.0],
      "ProtocolName": "BOLD_ep2d_3x3x3_response2",
      "RepetitionTime": 2000.0,
      "Rows": 490,
      "SAR": 0.16356128812584,
      "SamplesPerPixel": 1,
      "ScanOptions": "FS",
      "ScanningSequence": "EP",
      "SequenceName": "*epfid2d1_70",
      "SequenceVariant": "SK",
      "SeriesDescription": "BOLD_ep2d_3x3x3_response2",
      "SeriesNumber": 9,
      "SeriesTime": "111904.997000",
      "SliceLocation": 72.702137289747,
      "SliceThickness": 3.0,
      "SmallestImagePixelValue": 0,
      "SoftwareVersions": "syngo MR E11",
      "SpacingBetweenSlices": 3.0000000101665,
      "SpecificCharacterSet": "ISO_IR 100",
      "StudyID": "1",
      "StudyTime": "103520.261000",
      "TransmitCoilName": "Body",
      "VariableFlipAngleFlag": "N",
      "WindowCenterWidthExplanation": "Algo1",
      "dBdt": 0.0},
    "slices": {}
  },
  "time": {
    "samples": {
      "AcquisitionNumber": [1, 2, 3, 4, 5, 6, 7, 8, 9, 10, 11, 12, 13, 14, 15, 16, 17, 18, 19, 20, 21, 22, 23, 24, 25, 26, 27, 28, 29, 30, 31, 32, 33, 34, 35, 36, 37, 38, 39, 40, 41, 42, 43, 44, 45, 46, 47, 48, 49, 50, 51, 52, 53, 54, 55, 56, 57, 58, 59, 60, 61, 62, 63, 64, 65, 66, 67, 68, 69, 70, 71, 72, 73, 74, 75, 76, 77, 78, 79, 80, 81, 82, 83, 84, 85, 86, 87, 88, 89, 90, 91, 92, 93, 94, 95, 96, 97, 98, 99, 100, 101, 102, 103, 104, 105, 106, 107, 108, 109, 110, 111, 112, 113, 114, 115, 116, 117, 118, 119, 120, 121, 122, 123, 124, 125, 126, 127, 128, 129, 130, 131, 132, 133, 134, 135, 136, 137, 138, 139, 140, 141, 142, 143, 144, 145, 146, 147, 148, 149, 150, 151, 152, 153, 154, 155, 156, 157, 158, 159, 160, 161, 162, 163, 164, 165, 166, 167, 168, 169, 170, 171, 172, 173, 174, 175, 176, 177, 178, 179, 180, 181, 182, 183, 184, 185, 186, 187, 188, 189, 190, 191, 192, 193, 194, 195, 196, 197, 198, 199, 200, 201, 202, 203, 204, 205, 206, 207, 208, 209, 210, 211, 212, 213, 214, 215, 216, 217, 218, 219, 220, 221, 222, 223, 224, 225, 226, 227, 228, 229, 230, 231, 232, 233, 234, 235, 236, 237, 238, 239, 240, 241, 242, 243, 244, 245, 246, 247, 248, 249, 250, 251, 252, 253, 254, 255, 256, 257, 258, 259, 260, 261, 262, 263, 264, 265, 266, 267, 268, 269, 270, 271, 272, 273, 274, 275, 276, 277, 278, 279, 280, 281, 282, 283, 284, 285, 286, 287, 288, 289, 290, 291, 292, 293, 294, 295, 296, 297, 298, 299, 300, 301, 302, 303, 304, 305, 306, 307, 308, 309, 310, 311, 312, 313, 314, 315, 316, 317, 318, 319, 320, 321, 322, 323, 324, 325, 326, 327, 328, 329, 330, 331, 332, 333, 334, 335, 336, 337, 338, 339, 340, 341],
      "AcquisitionTime": ["111841.950000", "111843.950000", "111845.950000", "111847.950000", "111849.950000", "111851.950000", "111853.950000", "111855.950000", "111857.950000", "111859.950000", "111901.950000", "111903.950000", "111905.950000", "111907.950000", "111909.950000", "111911.950000", "111913.950000", "111915.950000", "111917.950000", "111919.950000", "111921.950000", "111923.950000", "111925.950000", "111927.950000", "111929.950000", "111931.950000", "111933.950000", "111935.950000", "111937.950000", "111939.950000", "111941.950000", "111943.950000", "111945.950000", "111947.950000", "111949.950000", "111951.950000", "111953.950000", "111955.950000", "111957.950000", "111959.950000", "112001.950000", "112003.950000", "112005.950000", "112007.950000", "112009.950000", "112011.950000", "112013.950000", "112015.950000", "112017.950000", "112019.950000", "112021.950000", "112023.950000", "112025.950000", "112027.950000", "112029.950000", "112031.950000", "112033.950000", "112035.950000", "112037.950000", "112039.950000", "112041.950000", "112043.950000", "112045.950000", "112047.950000", "112049.950000", "112051.950000", "112053.950000", "112055.950000", "112057.950000", "112059.950000", "112101.950000", "112103.950000", "112105.950000", "112107.950000", "112109.950000", "112111.950000", "112113.950000", "112115.950000", "112117.950000", "112119.950000", "112121.950000", "112123.950000", "112125.950000", "112127.950000", "112129.950000", "112131.950000", "112133.950000", "112135.950000", "112137.950000", "112139.950000", "112141.950000", "112143.950000", "112145.950000", "112147.950000", "112149.950000", "112151.950000", "112153.950000", "112155.950000", "112157.950000", "112159.950000", "112201.950000", "112203.950000", "112205.950000", "112207.950000", "112209.950000", "112211.950000", "112213.950000", "112215.950000", "112217.950000", "112219.950000", "112221.950000", "112223.950000", "112225.950000", "112227.950000", "112229.950000", "112231.950000", "112233.950000", "112235.950000", "112237.950000", "112239.950000", "112241.950000", "112243.950000", "112245.950000", "112247.950000", "112249.950000", "112251.950000", "112253.950000", "112255.950000", "112257.950000", "112259.950000", "112301.950000", "112303.950000", "112305.950000", "112307.950000", "112309.950000", "112311.950000", "112313.950000", "112315.950000", "112317.950000", "112319.950000", "112321.950000", "112323.950000", "112325.950000", "112327.950000", "112329.950000", "112331.950000", "112333.950000", "112335.950000", "112337.950000", "112339.950000", "112341.950000", "112343.950000", "112345.950000", "112347.950000", "112349.950000", "112351.950000", "112353.950000", "112355.950000", "112357.950000", "112359.950000", "112401.950000", "112403.950000", "112405.950000", "112407.950000", "112409.950000", "112411.950000", "112413.950000", "112415.950000", "112417.950000", "112419.950000", "112421.950000", "112423.950000", "112425.950000", "112427.950000", "112429.950000", "112431.950000", "112433.950000", "112435.950000", "112437.950000", "112439.950000", "112441.950000", "112443.950000", "112445.950000", "112447.950000", "112449.950000", "112451.950000", "112453.950000", "112455.950000", "112457.950000", "112459.950000", "112501.950000", "112503.950000", "112505.950000", "112507.950000", "112509.950000", "112511.950000", "112513.950000", "112515.950000", "112517.950000", "112519.950000", "112521.950000", "112523.950000", "112525.950000", "112527.950000", "112529.950000", "112531.950000", "112533.950000", "112535.950000", "112537.950000", "112539.950000", "112541.950000", "112543.950000", "112545.950000", "112547.950000", "112549.950000", "112551.950000", "112553.950000", "112555.950000", "112557.950000", "112559.950000", "112601.950000", "112603.950000", "112605.950000", "112607.950000", "112609.950000", "112611.950000", "112613.950000", "112615.950000", "112617.950000", "112619.950000", "112621.950000", "112623.950000", "112625.950000", "112627.950000", "112629.950000", "112631.950000", "112633.950000", "112635.950000", "112637.950000", "112639.950000", "112641.950000", "112643.950000", "112645.950000", "112647.950000", "112649.950000", "112651.950000", "112653.950000", "112655.950000", "112657.950000", "112659.950000", "112701.950000", "112703.950000", "112705.950000", "112707.950000", "112709.950000", "112711.950000", "112713.950000", "112715.950000", "112717.950000", "112719.950000", "112721.950000", "112723.950000", "112725.950000", "112727.950000", "112729.950000", "112731.950000", "112733.950000", "112735.950000", "112737.950000", "112739.950000", "112741.950000", "112743.950000", "112745.950000", "112747.950000", "112749.950000", "112751.950000", "112753.950000", "112755.950000", "112757.950000", "112759.950000", "112801.950000", "112803.950000", "112805.950000", "112807.950000", "112809.950000", "112811.950000", "112813.950000", "112815.950000", "112817.950000", "112819.950000", "112821.950000", "112823.950000", "112825.950000", "112827.950000", "112829.950000", "112831.950000", "112833.950000", "112835.950000", "112837.950000", "112839.950000", "112841.950000", "112843.950000", "112845.950000", "112847.950000", "112849.950000", "112851.950000", "112853.950000", "112855.950000", "112857.950000", "112859.950000", "112901.950000", "112903.950000", "112905.950000", "112907.950000", "112909.950000", "112911.950000", "112913.950000", "112915.950000", "112917.950000", "112919.950000", "112921.950000", "112923.950000", "112925.950000", "112927.950000", "112929.950000", "112931.950000", "112933.950000", "112935.950000", "112937.950000", "112939.950000", "112941.950000", "112943.950000", "112945.950000", "112947.950000", "112949.950000", "112951.950000", "112953.950000", "112955.950000", "112957.950000", "112959.950000", "113001.950000"],
      "ContentTime": ["111905.001000", "111905.017000", "111905.019000", "111905.022000", "111905.025000", "111905.027000", "111905.030000", "111905.032000", "111905.035000", "111905.046000", "111905.048000", "111944.994000", "111944.997000", "111945.001000", "111945.004000", "111945.006000", "111945.009000", "111945.021000", "111945.024000", "111945.027000", "111945.029000", "111945.032000", "111945.034000", "111945.037000", "111945.040000", "111945.042000", "111945.045000", "111945.048000", "111945.050000", "111945.053000", "111945.055000", "112024.994000", "112024.997000", "112025.001000", "112025.004000", "112025.006000", "112025.009000", "112025.012000", "112025.014000", "112025.017000", "112025.020000", "112025.022000", "112025.025000", "112025.027000", "112025.030000", "112025.033000", "112025.035000", "112025.038000", "112025.041000", "112025.043000", "112025.046000", "112104.995000", "112104.998000", "112105.010000", "112105.012000", "112105.015000", "112105.017000", "112105.020000", "112105.023000", "112105.025000", "112105.028000", "112105.031000", "112105.033000", "112105.036000", "112105.038000", "112105.041000", "112105.044000", "112105.046000", "112105.049000", "112105.052000", "112105.054000", "112144.995000", "112144.998000", "112145.002000", "112145.005000", "112145.007000", "112145.010000", "112145.013000", "112145.015000", "112145.018000", "112145.020000", "112145.033000", "112145.035000", "112145.038000", "112145.041000", "112145.043000", "112145.046000", "112145.049000", "112145.051000", "112145.054000", "112145.057000", "112224.994000", "112224.997000", "112225.001000", "112225.004000", "112225.007000", "112225.009000", "112225.012000", "112225.014000", "112225.017000", "112225.020000", "112225.022000", "112225.025000", "112225.035000", "112225.038000", "112225.040000", "112225.043000", "112225.046000", "112225.048000", "112225.051000", "112225.053000", "112304.995000", "112304.997000", "112305.001000", "112305.004000", "112305.006000", "112305.009000", "112305.012000", "112305.014000", "112305.027000", "112305.029000", "112305.032000", "112305.035000", "112305.037000", "112305.040000", "112305.043000", "112305.045000", "112305.048000", "112305.050000", "112305.053000", "112305.056000", "112344.996000", "112345.000000", "112345.002000", "112345.005000", "112345.008000", "112345.010000", "112345.013000", "112345.015000", "112345.018000", "112345.021000", "112345.023000", "112345.026000", "112345.029000", "112345.031000", "112345.034000", "112345.037000", "112345.039000", "112345.042000", "112345.045000", "112345.047000", "112424.995000", "112424.997000", "112425.001000", "112425.004000", "112425.007000", "112425.009000", "112425.012000", "112425.014000", "112425.017000", "112425.020000", "112425.022000", "112425.025000", "112425.027000", "112425.030000", "112425.033000", "112425.035000", "112425.038000", "112425.041000", "112425.043000", "112425.046000", "112504.995000", "112504.997000", "112505.001000", "112505.004000", "112505.007000", "112505.009000", "112505.012000", "112505.015000", "112505.017000", "112505.020000", "112505.022000", "112505.025000", "112505.028000", "112505.030000", "112505.033000", "112505.036000", "112505.038000", "112505.041000", "112505.044000", "112505.046000", "112544.996000", "112544.998000", "112545.002000", "112545.005000", "112545.008000", "112545.010000", "112545.013000", "112545.016000", "112545.018000", "112545.021000", "112545.024000", "112545.026000", "112545.029000", "112545.032000", "112545.034000", "112545.037000", "112545.040000", "112545.042000", "112545.045000", "112545.047000", "112624.995000", "112624.998000", "112625.002000", "112625.005000", "112625.007000", "112625.010000", "112625.013000", "112625.015000", "112625.018000", "112625.021000", "112625.023000", "112625.037000", "112625.040000", "112625.042000", "112625.045000", "112625.048000", "112625.050000", "112625.053000", "112625.056000", "112625.058000", "112704.995000", "112704.997000", "112705.001000", "112705.004000", "112705.007000", "112705.009000", "112705.012000", "112705.015000", "112705.017000", "112705.020000", "112705.022000", "112705.025000", "112705.028000", "112705.030000", "112705.033000", "112705.036000", "112705.038000", "112705.041000", "112705.043000", "112705.046000", "112744.995000", "112744.997000", "112745.001000", "112745.004000", "112745.007000", "112745.009000", "112745.012000", "112745.015000", "112745.017000", "112745.020000", "112745.022000", "112745.025000", "112745.028000", "112745.030000", "112745.033000", "112745.042000", "112745.045000", "112745.048000", "112745.050000", "112745.053000", "112824.995000", "112824.998000", "112825.002000", "112825.005000", "112825.008000", "112825.010000", "112825.013000", "112825.016000", "112825.018000", "112825.021000", "112825.023000", "112825.026000", "112825.029000", "112825.031000", "112825.034000", "112825.037000", "112825.039000", "112825.042000", "112825.045000", "112825.047000", "112904.995000", "112904.998000", "112905.001000", "112905.004000", "112905.007000", "112905.009000", "112905.012000", "112905.015000", "112905.018000", "112905.020000", "112905.023000", "112905.025000", "112905.028000", "112905.031000", "112905.033000", "112905.036000", "112905.039000", "112905.041000", "112905.044000", "112905.047000", "112944.995000", "112944.997000", "112945.001000", "112945.004000", "112945.006000", "112945.009000", "112945.012000", "112945.014000", "112945.017000", "112945.020000", "112945.022000", "112945.025000", "112945.028000", "112945.030000", "112945.033000", "112945.036000", "112945.038000", "112945.041000", "112945.044000", "112945.046000", "113003.577000", "113003.580000", "113003.582000", "113003.585000", "113003.588000", "113003.591000", "113003.593000", "113003.596000", "113003.599000", "113003.601000"],
      "InstanceCreationTime": ["111905.001000", "111905.017000", "111905.019000", "111905.022000", "111905.025000", "111905.027000", "111905.030000", "111905.032000", "111905.035000", "111905.046000", "111905.048000", "111944.994000", "111944.997000", "111945.001000", "111945.004000", "111945.006000", "111945.009000", "111945.021000", "111945.024000", "111945.027000", "111945.029000", "111945.032000", "111945.034000", "111945.037000", "111945.040000", "111945.042000", "111945.045000", "111945.048000", "111945.050000", "111945.053000", "111945.055000", "112024.994000", "112024.997000", "112025.001000", "112025.004000", "112025.006000", "112025.009000", "112025.012000", "112025.014000", "112025.017000", "112025.020000", "112025.022000", "112025.025000", "112025.027000", "112025.030000", "112025.033000", "112025.035000", "112025.038000", "112025.041000", "112025.043000", "112025.046000", "112104.995000", "112104.998000", "112105.010000", "112105.012000", "112105.015000", "112105.017000", "112105.020000", "112105.023000", "112105.025000", "112105.028000", "112105.031000", "112105.033000", "112105.036000", "112105.038000", "112105.041000", "112105.044000", "112105.046000", "112105.049000", "112105.052000", "112105.054000", "112144.995000", "112144.998000", "112145.002000", "112145.005000", "112145.007000", "112145.010000", "112145.013000", "112145.015000", "112145.018000", "112145.020000", "112145.033000", "112145.035000", "112145.038000", "112145.041000", "112145.043000", "112145.046000", "112145.049000", "112145.051000", "112145.054000", "112145.057000", "112224.994000", "112224.997000", "112225.001000", "112225.004000", "112225.007000", "112225.009000", "112225.012000", "112225.014000", "112225.017000", "112225.020000", "112225.022000", "112225.025000", "112225.035000", "112225.038000", "112225.040000", "112225.043000", "112225.046000", "112225.048000", "112225.051000", "112225.053000", "112304.995000", "112304.997000", "112305.001000", "112305.004000", "112305.006000", "112305.009000", "112305.012000", "112305.014000", "112305.027000", "112305.029000", "112305.032000", "112305.035000", "112305.037000", "112305.040000", "112305.043000", "112305.045000", "112305.048000", "112305.050000", "112305.053000", "112305.056000", "112344.996000", "112345.000000", "112345.002000", "112345.005000", "112345.008000", "112345.010000", "112345.013000", "112345.015000", "112345.018000", "112345.021000", "112345.023000", "112345.026000", "112345.029000", "112345.031000", "112345.034000", "112345.037000", "112345.039000", "112345.042000", "112345.045000", "112345.047000", "112424.995000", "112424.997000", "112425.001000", "112425.004000", "112425.007000", "112425.009000", "112425.012000", "112425.014000", "112425.017000", "112425.020000", "112425.022000", "112425.025000", "112425.027000", "112425.030000", "112425.033000", "112425.035000", "112425.038000", "112425.041000", "112425.043000", "112425.046000", "112504.995000", "112504.997000", "112505.001000", "112505.004000", "112505.007000", "112505.009000", "112505.012000", "112505.015000", "112505.017000", "112505.020000", "112505.022000", "112505.025000", "112505.028000", "112505.030000", "112505.033000", "112505.036000", "112505.038000", "112505.041000", "112505.044000", "112505.046000", "112544.996000", "112544.998000", "112545.002000", "112545.005000", "112545.008000", "112545.010000", "112545.013000", "112545.016000", "112545.018000", "112545.021000", "112545.024000", "112545.026000", "112545.029000", "112545.032000", "112545.034000", "112545.037000", "112545.040000", "112545.042000", "112545.045000", "112545.047000", "112624.995000", "112624.998000", "112625.002000", "112625.005000", "112625.007000", "112625.010000", "112625.013000", "112625.015000", "112625.018000", "112625.021000", "112625.023000", "112625.037000", "112625.040000", "112625.042000", "112625.045000", "112625.048000", "112625.050000", "112625.053000", "112625.056000", "112625.058000", "112704.995000", "112704.997000", "112705.001000", "112705.004000", "112705.007000", "112705.009000", "112705.012000", "112705.015000", "112705.017000", "112705.020000", "112705.022000", "112705.025000", "112705.028000", "112705.030000", "112705.033000", "112705.036000", "112705.038000", "112705.041000", "112705.043000", "112705.046000", "112744.995000", "112744.997000", "112745.001000", "112745.004000", "112745.007000", "112745.009000", "112745.012000", "112745.015000", "112745.017000", "112745.020000", "112745.022000", "112745.025000", "112745.028000", "112745.030000", "112745.033000", "112745.042000", "112745.045000", "112745.048000", "112745.050000", "112745.053000", "112824.995000", "112824.998000", "112825.002000", "112825.005000", "112825.008000", "112825.010000", "112825.013000", "112825.016000", "112825.018000", "112825.021000", "112825.023000", "112825.026000", "112825.029000", "112825.031000", "112825.034000", "112825.037000", "112825.039000", "112825.042000", "112825.045000", "112825.047000", "112904.995000", "112904.998000", "112905.001000", "112905.004000", "112905.007000", "112905.009000", "112905.012000", "112905.015000", "112905.018000", "112905.020000", "112905.023000", "112905.025000", "112905.028000", "112905.031000", "112905.033000", "112905.036000", "112905.039000", "112905.041000", "112905.044000", "112905.047000", "112944.995000", "112944.997000", "112945.001000", "112945.004000", "112945.006000", "112945.009000", "112945.012000", "112945.014000", "112945.017000", "112945.020000", "112945.022000", "112945.025000", "112945.028000", "112945.030000", "112945.033000", "112945.036000", "112945.038000", "112945.041000", "112945.044000", "112945.046000", "113003.577000", "113003.580000", "113003.582000", "113003.585000", "113003.588000", "113003.591000", "113003.593000", "113003.596000", "113003.599000", "113003.601000"],
      "InstanceNumber": [1, 2, 3, 4, 5, 6, 7, 8, 9, 10, 11, 12, 13, 14, 15, 16, 17, 18, 19, 20, 21, 22, 23, 24, 25, 26, 27, 28, 29, 30, 31, 32, 33, 34, 35, 36, 37, 38, 39, 40, 41, 42, 43, 44, 45, 46, 47, 48, 49, 50, 51, 52, 53, 54, 55, 56, 57, 58, 59, 60, 61, 62, 63, 64, 65, 66, 67, 68, 69, 70, 71, 72, 73, 74, 75, 76, 77, 78, 79, 80, 81, 82, 83, 84, 85, 86, 87, 88, 89, 90, 91, 92, 93, 94, 95, 96, 97, 98, 99, 100, 101, 102, 103, 104, 105, 106, 107, 108, 109, 110, 111, 112, 113, 114, 115, 116, 117, 118, 119, 120, 121, 122, 123, 124, 125, 126, 127, 128, 129, 130, 131, 132, 133, 134, 135, 136, 137, 138, 139, 140, 141, 142, 143, 144, 145, 146, 147, 148, 149, 150, 151, 152, 153, 154, 155, 156, 157, 158, 159, 160, 161, 162, 163, 164, 165, 166, 167, 168, 169, 170, 171, 172, 173, 174, 175, 176, 177, 178, 179, 180, 181, 182, 183, 184, 185, 186, 187, 188, 189, 190, 191, 192, 193, 194, 195, 196, 197, 198, 199, 200, 201, 202, 203, 204, 205, 206, 207, 208, 209, 210, 211, 212, 213, 214, 215, 216, 217, 218, 219, 220, 221, 222, 223, 224, 225, 226, 227, 228, 229, 230, 231, 232, 233, 234, 235, 236, 237, 238, 239, 240, 241, 242, 243, 244, 245, 246, 247, 248, 249, 250, 251, 252, 253, 254, 255, 256, 257, 258, 259, 260, 261, 262, 263, 264, 265, 266, 267, 268, 269, 270, 271, 272, 273, 274, 275, 276, 277, 278, 279, 280, 281, 282, 283, 284, 285, 286, 287, 288, 289, 290, 291, 292, 293, 294, 295, 296, 297, 298, 299, 300, 301, 302, 303, 304, 305, 306, 307, 308, 309, 310, 311, 312, 313, 314, 315, 316, 317, 318, 319, 320, 321, 322, 323, 324, 325, 326, 327, 328, 329, 330, 331, 332, 333, 334, 335, 336, 337, 338, 339, 340, 341],
      "LargestImagePixelValue": [2340, 2598, 1870, 1864, 1891, 1821, 1951, 2525, 2107, 1796, 2072, 2778, 1859, 2339, 1866, 2711, 1849, 1787, 2793, 1907, 1904, 1829, 3392, 2127, 1929, 1875, 2017, 2475, 1869, 2435, 1804, 1888, 2804, 1931, 2731, 1816, 2313, 2321, 2108, 2150, 1895, 2598, 2010, 2710, 1901, 1855, 2393, 3167, 1840, 1765, 2684, 2869, 2039, 1990, 2932, 1859, 1945, 2612, 1886, 1847, 2420, 1879, 2424, 1811, 2161, 2354, 1878, 2465, 1969, 1792, 2664, 1914, 1810, 2078, 1847, 1848, 2854, 2828, 1824, 2145, 1842, 1853, 3089, 2059, 1988, 1861, 1846, 2061, 2378, 2047, 3346, 1933, 2649, 1825, 2562, 1771, 2059, 2138, 1845, 2434, 1834, 2188, 1952, 2885, 2467, 1939, 2306, 1800, 2122, 1825, 2115, 2625, 1869, 2512, 1798, 2262, 1939, 2253, 1831, 2359, 1792, 2720, 1922, 2338, 1839, 2805, 3008, 1817, 2124, 1809, 2061, 2375, 1890, 2235, 2578, 2624, 1954, 1770, 2183, 2933, 1775, 2196, 2530, 1842, 2089, 1809, 2665, 2102, 2876, 2071, 2164, 2114, 1782, 2595, 1788, 1791, 2648, 1862, 2164, 1771, 1958, 2411, 2063, 2643, 1820, 2536, 2066, 1941, 2720, 2355, 3272, 1813, 2160, 1818, 2089, 2987, 1787, 1814, 2200, 1912, 2808, 1813, 1983, 2330, 1907, 2113, 2825, 1819, 2015, 1788, 1904, 2794, 1895, 1769, 2216, 1873, 2211, 2345, 2077, 1800, 2584, 2900, 2616, 3258, 2130, 1862, 1792, 2094, 2163, 1858, 2571, 1956, 1854, 1994, 1832, 2262, 1836, 2141, 2167, 2026, 2101, 1924, 2738, 1898, 2247, 1833, 2154, 2923, 2142, 2650, 1952, 2689, 1888, 2749, 1946, 2698, 1906, 3095, 1818, 2637, 2023, 1817, 2358, 1787, 2353, 1773, 2567, 1845, 2345, 1853, 2197, 1832, 2125, 1837, 2641, 2035, 2877, 1856, 1776, 2697, 1940, 1808, 2597, 1863, 1922, 2135, 1873, 2670, 2213, 1794, 2945, 1995, 2124, 1828, 2921, 1779, 1994, 1789, 1866, 2713, 1804, 2092, 1820, 2155, 1819, 2173, 1754, 2423, 1861, 1878, 2295, 1809, 2166, 1778, 2033, 2513, 2506, 1781, 1812, 2105, 2350, 1834, 2173, 2788, 1852, 1855, 2237, 2929, 1908, 1917, 2195, 2778, 1807, 1872, 2401, 2074, 2340, 2416, 1879, 1809, 2301, 2805, 1878, 2267, 1849, 3333, 2002, 2220, 1830, 1871, 2701, 1882, 2147, 1863, 2780, 1891, 2087, 1828, 2021, 2768, 1830],
