{
  "AcquisitionMatrixPE": 70,
  "AcquisitionNumber": 1,
  "AcquisitionTime": "10:28:34.477500",
  "BandwidthPerPixelPhaseEncode": 51.948,
  "BaseResolution": 70,
  "BodyPartExamined": "HEAD",
  "CoilCombinationMethod": "Sum of Squares",
  "ConsistencyInfo": "N4_VE11C_LATEST_20160120",
  "ConversionSoftware": "dcm2niix",
  "ConversionSoftwareVersion": "v1.0.20220720",
  "DerivedVendorReportedEchoSpacing": 0.000550001,
  "DeviceSerialNumber": "66061",
  "DwellTime": 3.3e-06,
  "EchoTime": 0.022,
  "EchoTrainLength": 35,
  "EffectiveEchoSpacing": 0.000275,
  "FlipAngle": 90,
  "HeudiconvVersion": "1.1.1",
  "ImageOrientationPatientDICOM": [0.999976, 0.00246316, 0.00652027, -0.00122166, 0.982932, -0.183964],
  "ImageOrientationText": "Tra>Cor(-10.6)>Sag(0.4)",
  "ImageType": [
    "ORIGINAL",
    "PRIMARY",
    "M",
    "ND",
    "NORM",
    "MOSAIC"
],
  "ImagingFrequency": 123.254,
  "InPlanePhaseEncodingDirectionDICOM": "COL",
  "InstitutionAddress": "Street StreetNo,City/1c4204/,District,KR,ZIP",
  "InstitutionName": "SKKU",
  "InstitutionalDepartmentName": "Department",
  "MRAcquisitionType": "2D",
  "MagneticFieldStrength": 3,
  "Manufacturer": "Siemens",
  "ManufacturersModelName": "Prisma",
  "MatrixCoilMode": "GRAPPA",
  "Modality": "MR",
  "NonlinearGradientCorrection": false,
  "ParallelReductionFactorInPlane": 2,
  "PartialFourier": 1,
  "PatientPosition": "HFS",
  "PercentPhaseFOV": 100,
  "PercentSampling": 100,
  "PhaseEncodingDirection": "j-",
  "PhaseEncodingSteps": 70,
  "PhaseResolution": 1,
  "PixelBandwidth": 2165,
  "ProcedureStepDescription": "Head^PI:Others",
  "ProtocolName": "BOLD_ep2d_3x3x3_feature3",
  "PulseSequenceDetails": "%SiemensSeq%\\ep2d_pace",
  "ReceiveCoilActiveElements": "HC1-7",
  "ReceiveCoilName": "HeadNeck_64",
  "ReconMatrixPE": 70,
  "RefLinesPE": 24,
  "RepetitionTime": 2,
  "SAR": 0.162327,
  "ScanOptions": "FS",
  "ScanningSequence": "EP",
  "SequenceName": "*epfid2d1_70",
  "SequenceVariant": "SK",
  "SeriesDescription": "BOLD_ep2d_3x3x3_feature3",
  "SeriesNumber": 6,
  "ShimSetting": [5059, 3718, 4465, 354, -31, -41, 24, 51],
  "SliceThickness": 3,
  "SliceTiming": [0.99, 0, 1.0375, 0.0475, 1.085, 0.095, 1.1325, 0.1425, 1.18, 0.19, 1.2275, 0.2375, 1.2725, 0.2825, 1.32, 0.33, 1.3675, 0.3775, 1.415, 0.425, 1.4625, 0.4725, 1.51, 0.52, 1.5575, 0.5675, 1.6025, 0.6125, 1.65, 0.66, 1.6975, 0.7075, 1.745, 0.755, 1.7925, 0.8025, 1.84, 0.85, 1.8875, 0.8975, 1.9325, 0.9425],
  "SoftwareVersions": "syngo MR E11",
  "SpacingBetweenSlices": 3,
  "StationName": "AWP66061",
  "TaskName": "feature",
  "TotalReadoutTime": 0.018975,
  "TxRefAmp": 272.694,
  "dcmmeta_affine": [
    [-2.999927043914795, -0.0036649678368121386, 0.020586350932717323, 104.79931640625],
    [-0.007389482110738754, 2.9487967491149902, -0.5518540740013123, -83.86236572265625],
    [0.019560813903808594, 0.5518913865089417, 2.9487342834472656, -64.14569854736328],
    [0.0, 0.0, 0.0, 1.0]
],
  "dcmmeta_reorient_transform": [
    [0.0, -1.0, 0.0, 69.0],
    [1.0, 0.0, 0.0, 0.0],
    [0.0, 0.0, -1.0, 41.0],
    [0.0, 0.0, 0.0, 1.0]
],
  "dcmmeta_shape": [70, 70, 42, 221],
  "dcmmeta_slice_dim": 2,
  "dcmmeta_version": 0.6,
  "global": {
    "const": {
      "AcquisitionMatrix": [70, 0, 0, 70],
      "AngioFlag": "N",
      "BitsAllocated": 16,
      "BitsStored": 12,
      "BodyPartExamined": "HEAD",
      "Columns": 490,
      "EchoNumbers": 1,
      "EchoTime": 22.0,
      "EchoTrainLength": 35,
      "FlipAngle": 90.0,
      "HighBit": 11,
      "ImageOrientationPatient": [0.99997570915698, 0.00246316065298, 0.00652027112929, -0.0012216559841, 0.98293226261067, -0.183963786316],
      "ImagePositionPatient": [-734.60552498717, -717.77771533767, 206.62232338391],
      "ImageType": [
        "ORIGINAL",
        "PRIMARY",
        "M",
        "ND",
        "NORM",
        "MOSAIC"
],
      "ImagedNucleus": "1H",
      "ImagingFrequency": 123.254448,
      "InPlanePhaseEncodingDirection": "COL",
      "MRAcquisitionType": "2D",
      "MagneticFieldStrength": 3.0,
      "Manufacturer": "SIEMENS",
      "ManufacturerModelName": "Prisma",
      "Modality": "MR",
      "NumberOfAverages": 1.0,
      "NumberOfPhaseEncodingSteps": 70,
      "PercentPhaseFieldOfView": 100.0,
      "PercentSampling": 100.0,
      "PerformedProcedureStepStartTime": "100453.274000",
      "PhotometricInterpretation": "MONOCHROME2",
      "PixelBandwidth": 2165.0,
      "PixelRepresentation": 0,
      "PixelSpacing": [3.0, 3.0],
      "ProtocolName": "BOLD_ep2d_3x3x3_feature3",
      "RepetitionTime": 2000.0,
      "Rows": 490,
      "SAR": 0.16232696447451,
      "SamplesPerPixel": 1,
      "ScanOptions": "FS",
      "ScanningSequence": "EP",
      "SequenceName": "*epfid2d1_70",
      "SequenceVariant": "SK",
      "SeriesDescription": "BOLD_ep2d_3x3x3_feature3",
      "SeriesNumber": 6,
      "SeriesTime": "102846.120000",
      "SliceLocation": 76.096204154488,
      "SliceThickness": 3.0,
      "SmallestImagePixelValue": 0,
      "SoftwareVersions": "syngo MR E11",
      "SpacingBetweenSlices": 3.0000000054326,
      "SpecificCharacterSet": "ISO_IR 100",
      "StudyID": "1",
      "StudyTime": "100453.216000",
      "TransmitCoilName": "Body",
      "VariableFlipAngleFlag": "N",
      "WindowCenterWidthExplanation": "Algo1",
      "dBdt": 0.0},
    "slices": {}
  },
  "time": {
    "samples": {
      "AcquisitionNumber": [1, 2, 3, 4, 5, 6, 7, 8, 9, 10, 11, 12, 13, 14, 15, 16, 17, 18, 19, 20, 21, 22, 23, 24, 25, 26, 27, 28, 29, 30, 31, 32, 33, 34, 35, 36, 37, 38, 39, 40, 41, 42, 43, 44, 45, 46, 47, 48, 49, 50, 51, 52, 53, 54, 55, 56, 57, 58, 59, 60, 61, 62, 63, 64, 65, 66, 67, 68, 69, 70, 71, 72, 73, 74, 75, 76, 77, 78, 79, 80, 81, 82, 83, 84, 85, 86, 87, 88, 89, 90, 91, 92, 93, 94, 95, 96, 97, 98, 99, 100, 101, 102, 103, 104, 105, 106, 107, 108, 109, 110, 111, 112, 113, 114, 115, 116, 117, 118, 119, 120, 121, 122, 123, 124, 125, 126, 127, 128, 129, 130, 131, 132, 133, 134, 135, 136, 137, 138, 139, 140, 141, 142, 143, 144, 145, 146, 147, 148, 149, 150, 151, 152, 153, 154, 155, 156, 157, 158, 159, 160, 161, 162, 163, 164, 165, 166, 167, 168, 169, 170, 171, 172, 173, 174, 175, 176, 177, 178, 179, 180, 181, 182, 183, 184, 185, 186, 187, 188, 189, 190, 191, 192, 193, 194, 195, 196, 197, 198, 199, 200, 201, 202, 203, 204, 205, 206, 207, 208, 209, 210, 211, 212, 213, 214, 215, 216, 217, 218, 219, 220, 221],
      "AcquisitionTime": ["102834.477500", "102836.477500", "102838.477500", "102840.477500", "102842.477500", "102844.477500", "102846.477500", "102848.477500", "102850.477500", "102852.477500", "102854.477500", "102856.477500", "102858.477500", "102900.477500", "102902.477500", "102904.477500", "102906.477500", "102908.477500", "102910.477500", "102912.477500", "102914.477500", "102916.477500", "102918.477500", "102920.477500", "102922.477500", "102924.477500", "102926.477500", "102928.477500", "102930.477500", "102932.477500", "102934.477500", "102936.477500", "102938.477500", "102940.477500", "102942.477500", "102944.477500", "102946.477500", "102948.477500", "102950.477500", "102952.477500", "102954.477500", "102956.477500", "102958.477500", "103000.477500", "103002.477500", "103004.477500", "103006.477500", "103008.477500", "103010.477500", "103012.477500", "103014.477500", "103016.477500", "103018.477500", "103020.477500", "103022.477500", "103024.477500", "103026.477500", "103028.477500", "103030.477500", "103032.477500", "103034.477500", "103036.477500", "103038.477500", "103040.477500", "103042.477500", "103044.477500", "103046.477500", "103048.477500", "103050.477500", "103052.477500", "103054.477500", "103056.477500", "103058.477500", "103100.477500", "103102.477500", "103104.477500", "103106.477500", "103108.477500", "103110.477500", "103112.477500", "103114.477500", "103116.477500", "103118.477500", "103120.477500", "103122.477500", "103124.477500", "103126.477500", "103128.477500", "103130.477500", "103132.477500", "103134.477500", "103136.477500", "103138.477500", "103140.477500", "103142.477500", "103144.477500", "103146.477500", "103148.477500", "103150.477500", "103152.477500", "103154.477500", "103156.477500", "103158.477500", "103200.477500", "103202.477500", "103204.477500", "103206.477500", "103208.477500", "103210.477500", "103212.477500", "103214.477500", "103216.477500", "103218.477500", "103220.477500", "103222.477500", "103224.477500", "103226.477500", "103228.477500", "103230.477500", "103232.477500", "103234.477500", "103236.477500", "103238.477500", "103240.477500", "103242.477500", "103244.477500", "103246.477500", "103248.477500", "103250.477500", "103252.477500", "103254.477500", "103256.477500", "103258.477500", "103300.477500", "103302.477500", "103304.477500", "103306.477500", "103308.477500", "103310.477500", "103312.477500", "103314.477500", "103316.477500", "103318.477500", "103320.477500", "103322.477500", "103324.477500", "103326.477500", "103328.477500", "103330.477500", "103332.477500", "103334.477500", "103336.477500", "103338.477500", "103340.477500", "103342.477500", "103344.477500", "103346.477500", "103348.477500", "103350.477500", "103352.477500", "103354.477500", "103356.477500", "103358.477500", "103400.477500", "103402.477500", "103404.477500", "103406.477500", "103408.477500", "103410.477500", "103412.477500", "103414.477500", "103416.477500", "103418.477500", "103420.477500", "103422.477500", "103424.477500", "103426.477500", "103428.477500", "103430.477500", "103432.477500", "103434.477500", "103436.477500", "103438.477500", "103440.477500", "103442.477500", "103444.477500", "103446.477500", "103448.477500", "103450.477500", "103452.477500", "103454.477500", "103456.477500", "103458.477500", "103500.477500", "103502.477500", "103504.477500", "103506.477500", "103508.477500", "103510.477500", "103512.477500", "103514.477500", "103516.477500", "103518.477500", "103520.477500", "103522.477500", "103524.477500", "103526.477500", "103528.477500", "103530.477500", "103532.477500", "103534.477500", "103536.477500", "103538.477500", "103540.477500", "103542.477500", "103544.477500", "103546.477500", "103548.477500", "103550.477500", "103552.477500", "103554.477500"],
      "ContentTime": ["102846.123000", "102846.130000", "102846.133000", "102846.136000", "102846.138000", "102846.141000", "102926.118000", "102926.121000", "102926.124000", "102926.127000", "102926.129000", "102926.132000", "102926.135000", "102926.137000", "102926.140000", "102926.146000", "102926.148000", "102926.151000", "102926.159000", "102926.162000", "102926.164000", "102926.167000", "102926.170000", "102926.172000", "102926.175000", "102926.178000", "103006.117000", "103006.120000", "103006.123000", "103006.126000", "103006.128000", "103006.131000", "103006.134000", "103006.136000", "103006.139000", "103006.142000", "103006.145000", "103006.147000", "103006.150000", "103006.153000", "103006.155000", "103006.158000", "103006.161000", "103006.163000", "103006.166000", "103006.171000", "103046.119000", "103046.121000", "103046.124000", "103046.127000", "103046.130000", "103046.132000", "103046.135000", "103046.137000", "103046.140000", "103046.143000", "103046.145000", "103046.148000", "103046.151000", "103046.154000", "103046.156000", "103046.159000", "103046.162000", "103046.164000", "103046.167000", "103046.170000", "103126.118000", "103126.121000", "103126.124000", "103126.127000", "103126.130000", "103126.132000", "103126.135000", "103126.137000", "103126.140000", "103126.143000", "103126.145000", "103126.148000", "103126.151000", "103126.153000", "103126.156000", "103126.159000", "103126.161000", "103126.164000", "103126.167000", "103126.169000", "103206.119000", "103206.121000", "103206.124000", "103206.127000", "103206.130000", "103206.132000", "103206.135000", "103206.137000", "103206.140000", "103206.143000", "103206.145000", "103206.148000", "103206.151000", "103206.154000", "103206.156000", "103206.159000", "103206.162000", "103206.164000", "103206.167000", "103206.170000", "103246.119000", "103246.126000", "103246.129000", "103246.131000", "103246.135000", "103246.138000", "103246.140000", "103246.143000", "103246.146000", "103246.148000", "103246.151000", "103246.154000", "103246.156000", "103246.159000", "103246.162000", "103246.165000", "103246.167000", "103246.170000", "103246.173000", "103246.175000", "103326.119000", "103326.122000", "103326.124000", "103326.127000", "103326.130000", "103326.133000", "103326.136000", "103326.139000", "103326.142000", "103326.144000", "103326.147000", "103326.150000", "103326.153000", "103326.155000", "103326.158000", "103326.161000", "103326.171000", "103326.174000", "103326.177000", "103326.180000", "103406.119000", "103406.122000", "103406.124000", "103406.127000", "103406.130000", "103406.132000", "103406.135000", "103406.138000", "103406.141000", "103406.143000", "103406.146000", "103406.148000", "103406.151000", "103406.154000", "103406.157000", "103406.159000", "103406.162000", "103406.165000", "103406.167000", "103406.170000", "103446.118000", "103446.120000", "103446.123000", "103446.126000", "103446.129000", "103446.131000", "103446.134000", "103446.137000", "103446.139000", "103446.142000", "103446.145000", "103446.147000", "103446.150000", "103446.153000", "103446.155000", "103446.158000", "103446.161000", "103446.164000", "103446.166000", "103446.169000", "103526.118000", "103526.121000", "103526.124000", "103526.127000", "103526.130000", "103526.136000", "103526.138000", "103526.141000", "103526.144000", "103526.146000", "103526.149000", "103526.152000", "103526.155000", "103526.157000", "103526.160000", "103526.163000", "103526.165000", "103526.168000", "103526.171000", "103526.173000", "103555.758000", "103555.761000", "103555.764000", "103555.766000", "103555.769000", "103555.772000", "103555.775000", "103555.777000", "103555.780000", "103555.785000", "103555.789000", "103555.793000", "103555.796000", "103555.799000", "103555.802000"],
      "InstanceCreationTime": ["102846.123000", "102846.130000", "102846.133000", "102846.136000", "102846.138000", "102846.141000", "102926.118000", "102926.121000", "102926.124000", "102926.127000", "102926.129000", "102926.132000", "102926.135000", "102926.137000", "102926.140000", "102926.146000", "102926.148000", "102926.151000", "102926.159000", "102926.162000", "102926.164000", "102926.167000", "102926.170000", "102926.172000", "102926.175000", "102926.178000", "103006.117000", "103006.120000", "103006.123000", "103006.126000", "103006.128000", "103006.131000", "103006.134000", "103006.136000", "103006.139000", "103006.142000", "103006.145000", "103006.147000", "103006.150000", "103006.153000", "103006.155000", "103006.158000", "103006.161000", "103006.163000", "103006.166000", "103006.171000", "103046.119000", "103046.121000", "103046.124000", "103046.127000", "103046.130000", "103046.132000", "103046.135000", "103046.137000", "103046.140000", "103046.143000", "103046.145000", "103046.148000", "103046.151000", "103046.154000", "103046.156000", "103046.159000", "103046.162000", "103046.164000", "103046.167000", "103046.170000", "103126.118000", "103126.121000", "103126.124000", "103126.127000", "103126.130000", "103126.132000", "103126.135000", "103126.137000", "103126.140000", "103126.143000", "103126.145000", "103126.148000", "103126.151000", "103126.153000", "103126.156000", "103126.159000", "103126.161000", "103126.164000", "103126.167000", "103126.169000", "103206.119000", "103206.121000", "103206.124000", "103206.127000", "103206.130000", "103206.132000", "103206.135000", "103206.137000", "103206.140000", "103206.143000", "103206.145000", "103206.148000", "103206.151000", "103206.154000", "103206.156000", "103206.159000", "103206.162000", "103206.164000", "103206.167000", "103206.170000", "103246.119000", "103246.126000", "103246.129000", "103246.131000", "103246.135000", "103246.138000", "103246.140000", "103246.143000", "103246.146000", "103246.148000", "103246.151000", "103246.154000", "103246.156000", "103246.159000", "103246.162000", "103246.165000", "103246.167000", "103246.170000", "103246.173000", "103246.175000", "103326.119000", "103326.122000", "103326.124000", "103326.127000", "103326.130000", "103326.133000", "103326.136000", "103326.139000", "103326.142000", "103326.144000", "103326.147000", "103326.150000", "103326.153000", "103326.155000", "103326.158000", "103326.161000", "103326.171000", "103326.174000", "103326.177000", "103326.180000", "103406.119000", "103406.122000", "103406.124000", "103406.127000", "103406.130000", "103406.132000", "103406.135000", "103406.138000", "103406.141000", "103406.143000", "103406.146000", "103406.148000", "103406.151000", "103406.154000", "103406.157000", "103406.159000", "103406.162000", "103406.165000", "103406.167000", "103406.170000", "103446.118000", "103446.120000", "103446.123000", "103446.126000", "103446.129000", "103446.131000", "103446.134000", "103446.137000", "103446.139000", "103446.142000", "103446.145000", "103446.147000", "103446.150000", "103446.153000", "103446.155000", "103446.158000", "103446.161000", "103446.164000", "103446.166000", "103446.169000", "103526.118000", "103526.121000", "103526.124000", "103526.127000", "103526.130000", "103526.136000", "103526.138000", "103526.141000", "103526.144000", "103526.146000", "103526.149000", "103526.152000", "103526.155000", "103526.157000", "103526.160000", "103526.163000", "103526.165000", "103526.168000", "103526.171000", "103526.173000", "103555.758000", "103555.761000", "103555.764000", "103555.766000", "103555.769000", "103555.772000", "103555.775000", "103555.777000", "103555.780000", "103555.785000", "103555.789000", "103555.793000", "103555.796000", "103555.799000", "103555.802000"],
      "InstanceNumber": [1, 2, 3, 4, 5, 6, 7, 8, 9, 10, 11, 12, 13, 14, 15, 16, 17, 18, 19, 20, 21, 22, 23, 24, 25, 26, 27, 28, 29, 30, 31, 32, 33, 34, 35, 36, 37, 38, 39, 40, 41, 42, 43, 44, 45, 46, 47, 48, 49, 50, 51, 52, 53, 54, 55, 56, 57, 58, 59, 60, 61, 62, 63, 64, 65, 66, 67, 68, 69, 70, 71, 72, 73, 74, 75, 76, 77, 78, 79, 80, 81, 82, 83, 84, 85, 86, 87, 88, 89, 90, 91, 92, 93, 94, 95, 96, 97, 98, 99, 100, 101, 102, 103, 104, 105, 106, 107, 108, 109, 110, 111, 112, 113, 114, 115, 116, 117, 118, 119, 120, 121, 122, 123, 124, 125, 126, 127, 128, 129, 130, 131, 132, 133, 134, 135, 136, 137, 138, 139, 140, 141, 142, 143, 144, 145, 146, 147, 148, 149, 150, 151, 152, 153, 154, 155, 156, 157, 158, 159, 160, 161, 162, 163, 164, 165, 166, 167, 168, 169, 170, 171, 172, 173, 174, 175, 176, 177, 178, 179, 180, 181, 182, 183, 184, 185, 186, 187, 188, 189, 190, 191, 192, 193, 194, 195, 196, 197, 198, 199, 200, 201, 202, 203, 204, 205, 206, 207, 208, 209, 210, 211, 212, 213, 214, 215, 216, 217, 218, 219, 220, 221],
      "LargestImagePixelValue": [2126, 1816, 2092, 1865, 2490, 2769, 1822, 1910, 2501, 1834, 1911, 2857, 1857, 1904, 2481, 1821, 2533, 1865, 2294, 3672, 2052, 1834, 2865, 2947, 2315, 1982, 1955, 1929, 2114, 1971, 2134, 2417, 1880, 1962, 2368, 3159, 1888, 1849, 2078, 1825, 1944, 1863, 2465, 2028, 3068, 1833, 1981, 2340, 2099, 3534, 2071, 1941, 2662, 2010, 1944, 1827, 2067, 2672, 1928, 2279, 3191, 1857, 1921, 2672, 2053, 2190, 3293, 1925, 1986, 2331, 1975, 2050, 2743, 1902, 2710, 1873, 2162, 1886, 2242, 2809, 2011, 2400, 1890, 2884, 1838, 2605, 1949, 3190, 1880, 2845, 1870, 1897, 1885, 1998, 2516, 1926, 1861, 1991, 2480, 1945, 1902, 2088, 2441, 1871, 1970, 2119, 2174, 1901, 2072, 2912, 1830, 1967, 3024, 2037, 2407, 1848, 2067, 1871, 2017, 1814, 2104, 1981, 2690, 1901, 2372, 3069, 1832, 2138, 1769, 2094, 3179, 1848, 2472, 1878, 3428, 2247, 2610, 1835, 2010, 2181, 1942, 2332, 1834, 2257, 2470, 1867, 2555, 1880, 1866, 2173, 1804, 1996, 2396, 1921, 1978, 2715, 1831, 1831, 2576, 1829, 1828, 2258, 1827, 3019, 2111, 2001, 2538, 1958, 2280, 2178, 1859, 1903, 1906, 2149, 2658, 2309, 1834, 1803, 1932, 2596, 3097, 1786, 1871, 2604, 2861, 2053, 2884, 2547, 2585, 1812, 1822, 1948, 2224, 1859, 2526, 3462, 1938, 2554, 2363, 1886, 2441, 1981, 2478, 1930, 2051, 2778, 1942, 1993, 3295, 1868, 1972, 2384, 1942, 1967, 2341, 2001, 1837, 2524, 2331, 1899, 2570],
      "WindowCenter": [878.0, 879.0, 882.0, 882.0, 883.0, 883.0, 881.0, 881.0, 882.0, 881.0, 883.0, 884.0, 882.0, 882.0, 883.0, 883.0, 884.0, 882.0, 882.0, 883.0, 881.0, 882.0, 884.0, 883.0, 880.0, 879.0, 880.0, 880.0, 881.0, 881.0, 881.0, 881.0, 881.0, 882.0, 882.0, 883.0, 880.0, 880.0, 881.0, 881.0, 882.0, 883.0, 884.0, 883.0, 883.0, 881.0, 883.0, 884.0, 882.0, 883.0, 881.0, 880.0, 880.0, 880.0, 881.0, 881.0, 882.0, 883.0, 881.0, 881.0, 882.0, 881.0, 881.0, 883.0, 882.0, 882.0, 884.0, 881.0, 882.0, 883.0, 882.0, 882.0, 882.0, 881.0, 882.0, 881.0, 882.0, 882.0, 882.0, 883.0, 881.0, 882.0, 882.0, 884.0, 883.0, 884.0, 882.0, 882.0, 879.0, 880.0, 878.0, 879.0, 881.0, 882.0, 882.0, 881.0, 881.0, 881.0, 883.0, 882.0, 881.0, 882.0, 882.0, 882.0, 881.0, 882.0, 882.0, 882.0, 882.0, 883.0, 881.0, 882.0, 883.0, 881.0, 883.0, 881.0, 882.0, 882.0, 884.0, 882.0, 883.0, 883.0, 884.0, 882.0, 882.0, 882.0, 881.0, 883.0, 883.0, 883.0, 883.0, 881.0, 882.0, 882.0, 884.0, 881.0, 881.0, 880.0, 881.0, 882.0, 881.0, 883.0, 882.0, 883.0, 883.0, 882.0, 883.0, 882.0, 882.0, 883.0, 882.0, 883.0, 883.0, 882.0, 882.0, 883.0, 881.0, 883.0, 884.0, 883.0, 884.0, 885.0, 883.0, 885.0, 883.0, 882.0, 883.0, 882.0, 881.0, 880.0, 880.0, 881.0, 881.0, 882.0, 882.0, 881.0, 880.0, 880.0, 882.0, 884.0, 883.0, 881.0, 883.0, 885.0, 885.0, 882.0, 884.0, 883.0, 883.0, 880.0, 880.0, 881.0, 883.0, 884.0, 884.0, 884.0, 882.0, 882.0, 881.0, 880.0, 881.0, 881.0, 881.0, 880.0, 881.0, 882.0, 882.0, 881.0, 883.0, 880.0, 881.0, 883.0, 883.0, 882.0, 882.0, 882.0, 883.0, 883.0, 882.0, 881.0, 882.0],
      "WindowWidth": [1843.0, 1846.0, 1855.0, 1852.0, 1856.0, 1857.0, 1848.0, 1849.0, 1855.0, 1850.0, 1854.0, 1861.0, 1850.0, 1851.0, 1858.0, 1853.0, 1860.0, 1850.0, 1854.0, 1861.0, 1850.0, 1852.0, 1861.0, 1858.0, 1849.0, 1844.0, 1846.0, 1847.0, 1849.0, 1848.0, 1849.0, 1853.0, 1848.0, 1851.0, 1853.0, 1858.0, 1846.0, 1846.0, 1849.0, 1848.0, 1851.0, 1854.0, 1860.0, 1854.0, 1859.0, 1849.0, 1855.0, 1859.0, 1852.0, 1860.0, 1848.0, 1845.0, 1851.0, 1847.0, 1848.0, 1849.0, 1852.0, 1858.0, 1849.0, 1852.0, 1858.0, 1847.0, 1849.0, 1857.0, 1853.0, 1854.0, 1860.0, 1849.0, 1851.0, 1857.0, 1851.0, 1851.0, 1856.0, 1849.0, 1855.0, 1849.0, 1852.0, 1850.0, 1854.0, 1857.0, 1850.0, 1854.0, 1850.0, 1862.0, 1856.0, 1862.0, 1851.0, 1858.0, 1843.0, 1850.0, 1841.0, 1844.0, 1848.0, 1852.0, 1855.0, 1849.0, 1849.0, 1850.0, 1856.0, 1850.0, 1850.0, 1853.0, 1855.0, 1850.0, 1849.0, 1852.0, 1854.0, 1850.0, 1852.0, 1858.0, 1849.0, 1851.0, 1859.0, 1850.0, 1855.0, 1849.0, 1850.0, 1851.0, 1856.0, 1851.0, 1854.0, 1853.0, 1858.0, 1849.0, 1852.0, 1856.0, 1847.0, 1855.0, 1852.0, 1854.0, 1859.0, 1847.0, 1854.0, 1852.0, 1862.0, 1850.0, 1851.0, 1845.0, 1850.0, 1851.0, 1848.0, 1854.0, 1850.0, 1855.0, 1857.0, 1850.0, 1856.0, 1851.0, 1851.0, 1854.0, 1850.0, 1853.0, 1855.0, 1849.0, 1849.0, 1856.0, 1848.0, 1851.0, 1858.0, 1853.0, 1854.0, 1859.0, 1853.0, 1863.0, 1855.0, 1852.0, 1856.0, 1850.0, 1850.0, 1847.0, 1845.0, 1847.0, 1849.0, 1851.0, 1852.0, 1849.0, 1844.0, 1846.0, 1852.0, 1857.0, 1857.0, 1847.0, 1853.0, 1863.0, 1861.0, 1851.0, 1859.0, 1857.0, 1855.0, 1844.0, 1844.0, 1848.0, 1856.0, 1855.0, 1858.0, 1862.0, 1849.0, 1852.0, 1849.0, 1845.0, 1851.0, 1847.0, 1851.0, 1846.0, 1847.0, 1854.0, 1850.0, 1849.0, 1857.0, 1844.0, 1847.0, 1856.0, 1851.0, 1850.0, 1852.0, 1851.0, 1851.0, 1854.0, 1853.0, 1848.0, 1854.0]
    },
    "slices": {}
  }
}