{
  "AcquisitionMatrixPE": 70,
  "AcquisitionNumber": 1,
  "AcquisitionTime": "10:20:15.035000",
  "BandwidthPerPixelPhaseEncode": 51.948,
  "BaseResolution": 70,
  "BodyPartExamined": "HEAD",
  "CoilCombinationMethod": "Sum of Squares",
  "ConsistencyInfo": "N4_VE11C_LATEST_20160120",
  "ConversionSoftware": "dcm2niix",
  "ConversionSoftwareVersion": "v1.0.20220720",
  "DerivedVendorReportedEchoSpacing": 0.000550001,
  "DeviceSerialNumber": "66061",
  "DwellTime": 3.3e-06,
  "EchoTime": 0.022,
  "EchoTrainLength": 35,
  "EffectiveEchoSpacing": 0.000275,
  "FlipAngle": 90,
  "HeudiconvVersion": "1.1.1",
  "ImageOrientationPatientDICOM": [0.999976, 0.00246316, 0.00652027, -0.00122166, 0.982932, -0.183964],
  "ImageOrientationText": "Tra>Cor(-10.6)>Sag(0.4)",
  "ImageType": [
    "ORIGINAL",
    "PRIMARY",
    "M",
    "ND",
    "NORM",
    "MOSAIC"
],
  "ImagingFrequency": 123.254,
  "InPlanePhaseEncodingDirectionDICOM": "COL",
  "InstitutionAddress": "Street StreetNo,City/1c4204/,District,KR,ZIP",
  "InstitutionName": "SKKU",
  "InstitutionalDepartmentName": "Department",
  "MRAcquisitionType": "2D",
  "MagneticFieldStrength": 3,
  "Manufacturer": "Siemens",
  "ManufacturersModelName": "Prisma",
  "MatrixCoilMode": "GRAPPA",
  "Modality": "MR",
  "NonlinearGradientCorrection": false,
  "ParallelReductionFactorInPlane": 2,
  "PartialFourier": 1,
  "PatientPosition": "HFS",
  "PercentPhaseFOV": 100,
  "PercentSampling": 100,
  "PhaseEncodingDirection": "j-",
  "PhaseEncodingSteps": 70,
  "PhaseResolution": 1,
  "PixelBandwidth": 2165,
  "ProcedureStepDescription": "Head^PI:Others",
  "ProtocolName": "BOLD_ep2d_3x3x3_feature2",
  "PulseSequenceDetails": "%SiemensSeq%\\ep2d_pace",
  "ReceiveCoilActiveElements": "HC1-7",
  "ReceiveCoilName": "HeadNeck_64",
  "ReconMatrixPE": 70,
  "RefLinesPE": 24,
  "RepetitionTime": 2,
  "SAR": 0.162327,
  "ScanOptions": "FS",
  "ScanningSequence": "EP",
  "SequenceName": "*epfid2d1_70",
  "SequenceVariant": "SK",
  "SeriesDescription": "BOLD_ep2d_3x3x3_feature2",
  "SeriesNumber": 5,
  "ShimSetting": [5059, 3718, 4465, 354, -31, -41, 24, 51],
  "SliceThickness": 3,
  "SliceTiming": [0.99, 0, 1.0375, 0.0475, 1.085, 0.095, 1.1325, 0.1425, 1.18, 0.19, 1.225, 0.235, 1.2725, 0.2825, 1.32, 0.33, 1.3675, 0.3775, 1.415, 0.425, 1.4625, 0.4725, 1.51, 0.52, 1.555, 0.565, 1.6025, 0.6125, 1.65, 0.66, 1.6975, 0.7075, 1.745, 0.755, 1.7925, 0.8025, 1.84, 0.85, 1.885, 0.895, 1.9325, 0.9425],
  "SoftwareVersions": "syngo MR E11",
  "SpacingBetweenSlices": 3,
  "StationName": "AWP66061",
  "TaskName": "feature",
  "TotalReadoutTime": 0.018975,
  "TxRefAmp": 272.694,
  "dcmmeta_affine": [
    [-2.999927043914795, -0.0036649678368121386, 0.020586350932717323, 104.79931640625],
    [-0.007389482110738754, 2.9487967491149902, -0.5518540740013123, -83.86236572265625],
    [0.019560813903808594, 0.5518913865089417, 2.9487342834472656, -64.14569854736328],
    [0.0, 0.0, 0.0, 1.0]
],
  "dcmmeta_reorient_transform": [
    [0.0, -1.0, 0.0, 69.0],
    [1.0, 0.0, 0.0, 0.0],
    [0.0, 0.0, -1.0, 41.0],
    [0.0, 0.0, 0.0, 1.0]
],
  "dcmmeta_shape": [70, 70, 42, 221],
  "dcmmeta_slice_dim": 2,
  "dcmmeta_version": 0.6,
  "global": {
    "const": {
      "AcquisitionMatrix": [70, 0, 0, 70],
      "AngioFlag": "N",
      "BitsAllocated": 16,
      "BitsStored": 12,
      "BodyPartExamined": "HEAD",
      "Columns": 490,
      "EchoNumbers": 1,
      "EchoTime": 22.0,
      "EchoTrainLength": 35,
      "FlipAngle": 90.0,
      "HighBit": 11,
      "ImageOrientationPatient": [0.99997570915698, 0.00246316065298, 0.00652027112929, -0.0012216559841, 0.98293226261067, -0.183963786316],
      "ImagePositionPatient": [-734.60552498717, -717.77771533767, 206.62232338391],
      "ImageType": [
        "ORIGINAL",
        "PRIMARY",
        "M",
        "ND",
        "NORM",
        "MOSAIC"
],
      "ImagedNucleus": "1H",
      "ImagingFrequency": 123.254446,
      "InPlanePhaseEncodingDirection": "COL",
      "MRAcquisitionType": "2D",
      "MagneticFieldStrength": 3.0,
      "Manufacturer": "SIEMENS",
      "ManufacturerModelName": "Prisma",
      "Modality": "MR",
      "NumberOfAverages": 1.0,
      "NumberOfPhaseEncodingSteps": 70,
      "PercentPhaseFieldOfView": 100.0,
      "PercentSampling": 100.0,
      "PerformedProcedureStepStartTime": "100453.274000",
      "PhotometricInterpretation": "MONOCHROME2",
      "PixelBandwidth": 2165.0,
      "PixelRepresentation": 0,
      "PixelSpacing": [3.0, 3.0],
      "ProtocolName": "BOLD_ep2d_3x3x3_feature2",
      "RepetitionTime": 2000.0,
      "Rows": 490,
      "SAR": 0.16232696447451,
      "SamplesPerPixel": 1,
      "ScanOptions": "FS",
      "ScanningSequence": "EP",
      "SequenceName": "*epfid2d1_70",
      "SequenceVariant": "SK",
      "SeriesDescription": "BOLD_ep2d_3x3x3_feature2",
      "SeriesNumber": 5,
      "SeriesTime": "102059.331000",
      "SliceLocation": 76.096204154488,
      "SliceThickness": 3.0,
      "SmallestImagePixelValue": 0,
      "SoftwareVersions": "syngo MR E11",
      "SpacingBetweenSlices": 3.0000000054326,
      "SpecificCharacterSet": "ISO_IR 100",
      "StudyID": "1",
      "StudyTime": "100453.216000",
      "TransmitCoilName": "Body",
      "VariableFlipAngleFlag": "N",
      "WindowCenterWidthExplanation": "Algo1",
      "dBdt": 0.0},
    "slices": {}
  },
  "time": {
    "samples": {
      "AcquisitionNumber": [1, 2, 3, 4, 5, 6, 7, 8, 9, 10, 11, 12, 13, 14, 15, 16, 17, 18, 19, 20, 21, 22, 23, 24, 25, 26, 27, 28, 29, 30, 31, 32, 33, 34, 35, 36, 37, 38, 39, 40, 41, 42, 43, 44, 45, 46, 47, 48, 49, 50, 51, 52, 53, 54, 55, 56, 57, 58, 59, 60, 61, 62, 63, 64, 65, 66, 67, 68, 69, 70, 71, 72, 73, 74, 75, 76, 77, 78, 79, 80, 81, 82, 83, 84, 85, 86, 87, 88, 89, 90, 91, 92, 93, 94, 95, 96, 97, 98, 99, 100, 101, 102, 103, 104, 105, 106, 107, 108, 109, 110, 111, 112, 113, 114, 115, 116, 117, 118, 119, 120, 121, 122, 123, 124, 125, 126, 127, 128, 129, 130, 131, 132, 133, 134, 135, 136, 137, 138, 139, 140, 141, 142, 143, 144, 145, 146, 147, 148, 149, 150, 151, 152, 153, 154, 155, 156, 157, 158, 159, 160, 161, 162, 163, 164, 165, 166, 167, 168, 169, 170, 171, 172, 173, 174, 175, 176, 177, 178, 179, 180, 181, 182, 183, 184, 185, 186, 187, 188, 189, 190, 191, 192, 193, 194, 195, 196, 197, 198, 199, 200, 201, 202, 203, 204, 205, 206, 207, 208, 209, 210, 211, 212, 213, 214, 215, 216, 217, 218, 219, 220, 221],
      "AcquisitionTime": ["102015.035000", "102017.035000", "102019.035000", "102021.035000", "102023.035000", "102025.035000", "102027.035000", "102029.035000", "102031.035000", "102033.035000", "102035.035000", "102037.035000", "102039.035000", "102041.035000", "102043.035000", "102045.035000", "102047.035000", "102049.035000", "102051.035000", "102053.035000", "102055.035000", "102057.035000", "102059.035000", "102101.035000", "102103.035000", "102105.035000", "102107.035000", "102109.035000", "102111.035000", "102113.035000", "102115.035000", "102117.035000", "102119.035000", "102121.035000", "102123.035000", "102125.035000", "102127.035000", "102129.035000", "102131.035000", "102133.035000", "102135.035000", "102137.035000", "102139.035000", "102141.035000", "102143.035000", "102145.035000", "102147.035000", "102149.035000", "102151.035000", "102153.035000", "102155.035000", "102157.035000", "102159.035000", "102201.035000", "102203.035000", "102205.035000", "102207.035000", "102209.035000", "102211.035000", "102213.035000", "102215.035000", "102217.035000", "102219.035000", "102221.035000", "102223.035000", "102225.035000", "102227.035000", "102229.035000", "102231.035000", "102233.035000", "102235.035000", "102237.035000", "102239.035000", "102241.035000", "102243.035000", "102245.035000", "102247.035000", "102249.035000", "102251.035000", "102253.035000", "102255.035000", "102257.035000", "102259.035000", "102301.035000", "102303.035000", "102305.035000", "102307.035000", "102309.035000", "102311.035000", "102313.035000", "102315.035000", "102317.035000", "102319.035000", "102321.035000", "102323.035000", "102325.035000", "102327.035000", "102329.035000", "102331.035000", "102333.035000", "102335.035000", "102337.035000", "102339.035000", "102341.035000", "102343.035000", "102345.035000", "102347.035000", "102349.035000", "102351.035000", "102353.035000", "102355.035000", "102357.035000", "102359.035000", "102401.035000", "102403.035000", "102405.035000", "102407.035000", "102409.035000", "102411.035000", "102413.035000", "102415.035000", "102417.035000", "102419.035000", "102421.035000", "102423.035000", "102425.035000", "102427.035000", "102429.035000", "102431.035000", "102433.035000", "102435.035000", "102437.035000", "102439.035000", "102441.035000", "102443.035000", "102445.035000", "102447.035000", "102449.035000", "102451.035000", "102453.035000", "102455.035000", "102457.035000", "102459.035000", "102501.035000", "102503.035000", "102505.035000", "102507.035000", "102509.035000", "102511.035000", "102513.035000", "102515.035000", "102517.035000", "102519.035000", "102521.035000", "102523.035000", "102525.035000", "102527.035000", "102529.035000", "102531.035000", "102533.035000", "102535.035000", "102537.035000", "102539.035000", "102541.035000", "102543.035000", "102545.035000", "102547.035000", "102549.035000", "102551.035000", "102553.035000", "102555.035000", "102557.035000", "102559.035000", "102601.035000", "102603.035000", "102605.035000", "102607.035000", "102609.035000", "102611.035000", "102613.035000", "102615.035000", "102617.035000", "102619.035000", "102621.035000", "102623.035000", "102625.035000", "102627.035000", "102629.035000", "102631.035000", "102633.035000", "102635.035000", "102637.035000", "102639.035000", "102641.035000", "102643.035000", "102645.035000", "102647.035000", "102649.035000", "102651.035000", "102653.035000", "102655.035000", "102657.035000", "102659.035000", "102701.035000", "102703.035000", "102705.035000", "102707.035000", "102709.035000", "102711.035000", "102713.035000", "102715.035000", "102717.035000", "102719.035000", "102721.035000", "102723.035000", "102725.035000", "102727.035000", "102729.035000", "102731.035000", "102733.035000", "102735.035000"],
      "ContentTime": ["102059.334000", "102059.337000", "102059.340000", "102059.343000", "102059.348000", "102059.351000", "102059.354000", "102059.356000", "102059.359000", "102059.362000", "102059.365000", "102059.367000", "102059.370000", "102059.372000", "102059.375000", "102059.378000", "102059.380000", "102059.386000", "102059.388000", "102059.391000", "102059.394000", "102059.396000", "102139.329000", "102139.332000", "102139.335000", "102139.338000", "102139.340000", "102139.343000", "102139.346000", "102139.348000", "102139.351000", "102139.353000", "102139.356000", "102139.359000", "102139.361000", "102139.364000", "102139.367000", "102139.374000", "102139.377000", "102139.379000", "102139.382000", "102139.385000", "102219.330000", "102219.333000", "102219.336000", "102219.339000", "102219.341000", "102219.344000", "102219.347000", "102219.350000", "102219.352000", "102219.355000", "102219.357000", "102219.360000", "102219.363000", "102219.365000", "102219.368000", "102219.371000", "102219.373000", "102219.376000", "102219.379000", "102219.381000", "102259.329000", "102259.332000", "102259.335000", "102259.338000", "102259.340000", "102259.343000", "102259.346000", "102259.348000", "102259.351000", "102259.354000", "102259.356000", "102259.359000", "102259.362000", "102259.364000", "102259.367000", "102259.370000", "102259.372000", "102259.375000", "102259.378000", "102259.380000", "102339.330000", "102339.332000", "102339.335000", "102339.338000", "102339.341000", "102339.343000", "102339.346000", "102339.349000", "102339.351000", "102339.354000", "102339.357000", "102339.359000", "102339.362000", "102339.365000", "102339.367000", "102339.370000", "102339.373000", "102339.375000", "102339.378000", "102339.381000", "102419.331000", "102419.334000", "102419.336000", "102419.339000", "102419.342000", "102419.344000", "102419.347000", "102419.350000", "102419.352000", "102419.355000", "102419.358000", "102419.360000", "102419.363000", "102419.366000", "102419.368000", "102419.371000", "102419.374000", "102419.376000", "102419.379000", "102419.382000", "102459.330000", "102459.333000", "102459.336000", "102459.344000", "102459.347000", "102459.349000", "102459.352000", "102459.355000", "102459.357000", "102459.360000", "102459.363000", "102459.365000", "102459.368000", "102459.371000", "102459.373000", "102459.376000", "102459.379000", "102459.381000", "102459.384000", "102459.387000", "102539.330000", "102539.332000", "102539.335000", "102539.338000", "102539.341000", "102539.343000", "102539.346000", "102539.349000", "102539.351000", "102539.354000", "102539.357000", "102539.380000", "102539.382000", "102539.385000", "102539.388000", "102539.391000", "102539.393000", "102539.396000", "102539.398000", "102539.401000", "102619.330000", "102619.332000", "102619.335000", "102619.338000", "102619.351000", "102619.354000", "102619.356000", "102619.359000", "102619.362000", "102619.364000", "102619.367000", "102619.370000", "102619.373000", "102619.375000", "102619.378000", "102619.381000", "102619.383000", "102619.386000", "102619.389000", "102619.391000", "102659.330000", "102659.333000", "102659.336000", "102659.339000", "102659.341000", "102659.344000", "102659.346000", "102659.349000", "102659.352000", "102659.354000", "102659.357000", "102659.360000", "102659.362000", "102659.365000", "102659.367000", "102659.370000", "102659.373000", "102659.376000", "102659.378000", "102659.381000", "102736.291000", "102736.294000", "102736.297000", "102736.299000", "102736.302000", "102736.305000", "102736.308000", "102736.311000", "102736.313000", "102736.316000", "102736.319000", "102736.324000", "102736.328000", "102736.332000", "102736.335000", "102736.338000", "102736.342000", "102736.345000", "102736.348000"],
      "InstanceCreationTime": ["102059.334000", "102059.337000", "102059.340000", "102059.343000", "102059.348000", "102059.351000", "102059.354000", "102059.356000", "102059.359000", "102059.362000", "102059.365000", "102059.367000", "102059.370000", "102059.372000", "102059.375000", "102059.378000", "102059.380000", "102059.386000", "102059.388000", "102059.391000", "102059.394000", "102059.396000", "102139.329000", "102139.332000", "102139.335000", "102139.338000", "102139.340000", "102139.343000", "102139.346000", "102139.348000", "102139.351000", "102139.353000", "102139.356000", "102139.359000", "102139.361000", "102139.364000", "102139.367000", "102139.374000", "102139.377000", "102139.379000", "102139.382000", "102139.385000", "102219.330000", "102219.333000", "102219.336000", "102219.339000", "102219.341000", "102219.344000", "102219.347000", "102219.350000", "102219.352000", "102219.355000", "102219.357000", "102219.360000", "102219.363000", "102219.365000", "102219.368000", "102219.371000", "102219.373000", "102219.376000", "102219.379000", "102219.381000", "102259.329000", "102259.332000", "102259.335000", "102259.338000", "102259.340000", "102259.343000", "102259.346000", "102259.348000", "102259.351000", "102259.354000", "102259.356000", "102259.359000", "102259.362000", "102259.364000", "102259.367000", "102259.370000", "102259.372000", "102259.375000", "102259.378000", "102259.380000", "102339.330000", "102339.332000", "102339.335000", "102339.338000", "102339.341000", "102339.343000", "102339.346000", "102339.349000", "102339.351000", "102339.354000", "102339.357000", "102339.359000", "102339.362000", "102339.365000", "102339.367000", "102339.370000", "102339.373000", "102339.375000", "102339.378000", "102339.381000", "102419.331000", "102419.334000", "102419.336000", "102419.339000", "102419.342000", "102419.344000", "102419.347000", "102419.350000", "102419.352000", "102419.355000", "102419.358000", "102419.360000", "102419.363000", "102419.366000", "102419.368000", "102419.371000", "102419.374000", "102419.376000", "102419.379000", "102419.382000", "102459.330000", "102459.333000", "102459.336000", "102459.344000", "102459.347000", "102459.349000", "102459.352000", "102459.355000", "102459.357000", "102459.360000", "102459.363000", "102459.365000", "102459.368000", "102459.371000", "102459.373000", "102459.376000", "102459.379000", "102459.381000", "102459.384000", "102459.387000", "102539.330000", "102539.332000", "102539.335000", "102539.338000", "102539.341000", "102539.343000", "102539.346000", "102539.349000", "102539.351000", "102539.354000", "102539.357000", "102539.380000", "102539.382000", "102539.385000", "102539.388000", "102539.391000", "102539.393000", "102539.396000", "102539.398000", "102539.401000", "102619.330000", "102619.332000", "102619.335000", "102619.338000", "102619.351000", "102619.354000", "102619.356000", "102619.359000", "102619.362000", "102619.364000", "102619.367000", "102619.370000", "102619.373000", "102619.375000", "102619.378000", "102619.381000", "102619.383000", "102619.386000", "102619.389000", "102619.391000", "102659.330000", "102659.333000", "102659.336000", "102659.339000", "102659.341000", "102659.344000", "102659.346000", "102659.349000", "102659.352000", "102659.354000", "102659.357000", "102659.360000", "102659.362000", "102659.365000", "102659.367000", "102659.370000", "102659.373000", "102659.376000", "102659.378000", "102659.381000", "102736.291000", "102736.294000", "102736.297000", "102736.299000", "102736.302000", "102736.305000", "102736.308000", "102736.311000", "102736.313000", "102736.316000", "102736.319000", "102736.324000", "102736.328000", "102736.332000", "102736.335000", "102736.338000", "102736.342000", "102736.345000", "102736.348000"],
      "InstanceNumber": [1, 2, 3, 4, 5, 6, 7, 8, 9, 10, 11, 12, 13, 14, 15, 16, 17, 18, 19, 20, 21, 22, 23, 24, 25, 26, 27, 28, 29, 30, 31, 32, 33, 34, 35, 36, 37, 38, 39, 40, 41, 42, 43, 44, 45, 46, 47, 48, 49, 50, 51, 52, 53, 54, 55, 56, 57, 58, 59, 60, 61, 62, 63, 64, 65, 66, 67, 68, 69, 70, 71, 72, 73, 74, 75, 76, 77, 78, 79, 80, 81, 82, 83, 84, 85, 86, 87, 88, 89, 90, 91, 92, 93, 94, 95, 96, 97, 98, 99, 100, 101, 102, 103, 104, 105, 106, 107, 108, 109, 110, 111, 112, 113, 114, 115, 116, 117, 118, 119, 120, 121, 122, 123, 124, 125, 126, 127, 128, 129, 130, 131, 132, 133, 134, 135, 136, 137, 138, 139, 140, 141, 142, 143, 144, 145, 146, 147, 148, 149, 150, 151, 152, 153, 154, 155, 156, 157, 158, 159, 160, 161, 162, 163, 164, 165, 166, 167, 168, 169, 170, 171, 172, 173, 174, 175, 176, 177, 178, 179, 180, 181, 182, 183, 184, 185, 186, 187, 188, 189, 190, 191, 192, 193, 194, 195, 196, 197, 198, 199, 200, 201, 202, 203, 204, 205, 206, 207, 208, 209, 210, 211, 212, 213, 214, 215, 216, 217, 218, 219, 220, 221],
      "LargestImagePixelValue": [1882, 2512, 1908, 1891, 2003, 1900, 2320, 3238, 1874, 1925, 2964, 1881, 1983, 2438, 1941, 2296, 1936, 1898, 1921, 2001, 3294, 1884, 2446, 1894, 2334, 1897, 2058, 2626, 1909, 2629, 2111, 2394, 2448, 1919, 2282, 1995, 2191, 1831, 1884, 2532, 1852, 2050, 2160, 1872, 2433, 1874, 1958, 2388, 1852, 3482, 1965, 2004, 3227, 1908, 2554, 1908, 2431, 1859, 2198, 1895, 1878, 2494, 1820, 2183, 1831, 1879, 2623, 1856, 2334, 1898, 2365, 2211, 1899, 2664, 1876, 2015, 1875, 2530, 1874, 2109, 3449, 2779, 2107, 1961, 1857, 2211, 3128, 1873, 1852, 2006, 2688, 1890, 2065, 1843, 2089, 2362, 1876, 1876, 2297, 1890, 2131, 3323, 1855, 1924, 2689, 1822, 1897, 2259, 2249, 1850, 1961, 2553, 1924, 1919, 2523, 1871, 1967, 3173, 1843, 1875, 2713, 2048, 2482, 1943, 1854, 2677, 1907, 1856, 2383, 1917, 1858, 2509, 1848, 1841, 2088, 3042, 1946, 2688, 1873, 2309, 1814, 1891, 2525, 1847, 1886, 2265, 2237, 1906, 1871, 2673, 1858, 3022, 1826, 1891, 2397, 1891, 2176, 2248, 1852, 1834, 1829, 2064, 2853, 3559, 2121, 2010, 2489, 1829, 2571, 1953, 1930, 3306, 1853, 1899, 2507, 1832, 1924, 2540, 2204, 1843, 1905, 2511, 2088, 1815, 2167, 1846, 1877, 3351, 1808, 1900, 2518, 1959, 1941, 2857, 1907, 1909, 1896, 1872, 2801, 2360, 2898, 3120, 2009, 2249, 1817, 1952, 2700, 2149, 1845, 2226, 2337, 1834, 2037, 2472, 2374, 1828, 1851, 2104, 2853, 2549, 1940],
      "WindowCenter": [881.0, 882.0, 881.0, 880.0, 882.0, 882.0, 883.0, 884.0, 881.0, 881.0, 883.0, 881.0, 881.0, 882.0, 881.0, 881.0, 881.0, 882.0, 883.0, 883.0, 884.0, 882.0, 882.0, 881.0, 882.0, 881.0, 881.0, 882.0, 881.0, 882.0, 881.0, 882.0, 882.0, 880.0, 881.0, 882.0, 882.0, 881.0, 882.0, 883.0, 881.0, 882.0, 883.0, 882.0, 883.0, 882.0, 882.0, 883.0, 883.0, 885.0, 883.0, 882.0, 883.0, 880.0, 880.0, 880.0, 881.0, 881.0, 881.0, 881.0, 882.0, 883.0, 881.0, 881.0, 881.0, 882.0, 883.0, 881.0, 883.0, 884.0, 883.0, 882.0, 881.0, 883.0, 881.0, 882.0, 882.0, 883.0, 882.0, 882.0, 884.0, 882.0, 880.0, 881.0, 881.0, 882.0, 883.0, 880.0, 881.0, 881.0, 881.0, 880.0, 881.0, 881.0, 882.0, 882.0, 881.0, 881.0, 883.0, 882.0, 882.0, 883.0, 881.0, 882.0, 883.0, 882.0, 881.0, 881.0, 882.0, 882.0, 882.0, 882.0, 881.0, 882.0, 883.0, 883.0, 884.0, 885.0, 882.0, 883.0, 885.0, 884.0, 884.0, 882.0, 883.0, 884.0, 882.0, 881.0, 884.0, 883.0, 882.0, 883.0, 882.0, 883.0, 882.0, 883.0, 882.0, 884.0, 882.0, 882.0, 880.0, 883.0, 884.0, 883.0, 882.0, 882.0, 883.0, 882.0, 882.0, 884.0, 882.0, 884.0, 882.0, 882.0, 883.0, 882.0, 883.0, 883.0, 883.0, 883.0, 885.0, 886.0, 886.0, 886.0, 883.0, 882.0, 882.0, 883.0, 885.0, 884.0, 883.0, 884.0, 881.0, 882.0, 883.0, 882.0, 882.0, 883.0, 882.0, 882.0, 883.0, 883.0, 882.0, 882.0, 884.0, 884.0, 883.0, 884.0, 881.0, 883.0, 884.0, 884.0, 884.0, 885.0, 883.0, 883.0, 884.0, 887.0, 888.0, 886.0, 885.0, 885.0, 882.0, 882.0, 882.0, 882.0, 883.0, 881.0, 881.0, 882.0, 882.0, 881.0, 883.0, 883.0, 882.0, 882.0, 884.0, 885.0, 885.0, 883.0, 882.0],
      "WindowWidth": [1850.0, 1855.0, 1849.0, 1848.0, 1852.0, 1854.0, 1856.0, 1862.0, 1850.0, 1851.0, 1860.0, 1850.0, 1851.0, 1855.0, 1850.0, 1852.0, 1850.0, 1852.0, 1854.0, 1854.0, 1863.0, 1851.0, 1856.0, 1850.0, 1854.0, 1850.0, 1852.0, 1855.0, 1849.0, 1856.0, 1852.0, 1855.0, 1854.0, 1849.0, 1853.0, 1852.0, 1853.0, 1850.0, 1851.0, 1857.0, 1851.0, 1854.0, 1856.0, 1853.0, 1857.0, 1852.0, 1853.0, 1858.0, 1856.0, 1869.0, 1856.0, 1853.0, 1860.0, 1847.0, 1851.0, 1847.0, 1853.0, 1849.0, 1852.0, 1850.0, 1851.0, 1857.0, 1850.0, 1852.0, 1850.0, 1851.0, 1857.0, 1851.0, 1857.0, 1855.0, 1857.0, 1854.0, 1850.0, 1857.0, 1850.0, 1853.0, 1853.0, 1857.0, 1853.0, 1854.0, 1864.0, 1856.0, 1848.0, 1849.0, 1850.0, 1853.0, 1858.0, 1848.0, 1849.0, 1849.0, 1854.0, 1847.0, 1850.0, 1849.0, 1851.0, 1854.0, 1848.0, 1849.0, 1857.0, 1852.0, 1853.0, 1860.0, 1849.0, 1852.0, 1857.0, 1849.0, 1849.0, 1852.0, 1854.0, 1851.0, 1852.0, 1855.0, 1851.0, 1852.0, 1857.0, 1855.0, 1856.0, 1865.0, 1852.0, 1854.0, 1863.0, 1858.0, 1860.0, 1852.0, 1854.0, 1861.0, 1851.0, 1851.0, 1859.0, 1854.0, 1851.0, 1858.0, 1852.0, 1853.0, 1854.0, 1861.0, 1853.0, 1860.0, 1852.0, 1852.0, 1848.0, 1855.0, 1861.0, 1853.0, 1852.0, 1854.0, 1855.0, 1850.0, 1853.0, 1861.0, 1852.0, 1862.0, 1852.0, 1851.0, 1855.0, 1851.0, 1854.0, 1856.0, 1853.0, 1855.0, 1860.0, 1862.0, 1865.0, 1867.0, 1855.0, 1853.0, 1855.0, 1855.0, 1863.0, 1857.0, 1855.0, 1863.0, 1849.0, 1850.0, 1857.0, 1852.0, 1851.0, 1857.0, 1853.0, 1850.0, 1852.0, 1857.0, 1854.0, 1851.0, 1857.0, 1856.0, 1854.0, 1864.0, 1848.0, 1854.0, 1860.0, 1855.0, 1855.0, 1863.0, 1854.0, 1855.0, 1858.0, 1865.0, 1870.0, 1863.0, 1864.0, 1863.0, 1852.0, 1854.0, 1850.0, 1852.0, 1857.0, 1850.0, 1849.0, 1852.0, 1853.0, 1850.0, 1854.0, 1856.0, 1853.0, 1850.0, 1857.0, 1858.0, 1861.0, 1856.0, 1851.0]
    },
    "slices": {}
  }
}