{
  "AcquisitionMatrixPE": 70,
  "AcquisitionNumber": 1,
  "AcquisitionTime": "13:28:28.105000",
  "BandwidthPerPixelPhaseEncode": 51.948,
  "BaseResolution": 70,
  "BodyPartExamined": "HEAD",
  "CoilCombinationMethod": "Sum of Squares",
  "ConsistencyInfo": "N4_VE11C_LATEST_20160120",
  "ConversionSoftware": "dcm2niix",
  "ConversionSoftwareVersion": "v1.0.20220720",
  "DerivedVendorReportedEchoSpacing": 0.000550001,
  "DeviceSerialNumber": "66061",
  "DwellTime": 3.3e-06,
  "EchoTime": 0.022,
  "EchoTrainLength": 35,
  "EffectiveEchoSpacing": 0.000275,
  "FlipAngle": 90,
  "HeudiconvVersion": "1.1.1",
  "ImageOrientationPatientDICOM": [0.999905, 0.00328385, 0.0133811, -0.00122167, 0.988488, -0.151295],
  "ImageOrientationText": "Tra>Cor(-8.7)>Sag(0.8)",
  "ImageType": [
    "ORIGINAL",
    "PRIMARY",
    "M",
    "ND",
    "NORM",
    "MOSAIC"
],
  "ImagingFrequency": 123.254,
  "InPlanePhaseEncodingDirectionDICOM": "COL",
  "InstitutionAddress": "Street StreetNo,City/1c4204/,District,KR,ZIP",
  "InstitutionName": "SKKU",
  "InstitutionalDepartmentName": "Department",
  "MRAcquisitionType": "2D",
  "MagneticFieldStrength": 3,
  "Manufacturer": "Siemens",
  "ManufacturersModelName": "Prisma",
  "MatrixCoilMode": "GRAPPA",
  "Modality": "MR",
  "NonlinearGradientCorrection": false,
  "ParallelReductionFactorInPlane": 2,
  "PartialFourier": 1,
  "PatientPosition": "HFS",
  "PercentPhaseFOV": 100,
  "PercentSampling": 100,
  "PhaseEncodingDirection": "j-",
  "PhaseEncodingSteps": 70,
  "PhaseResolution": 1,
  "PixelBandwidth": 2165,
  "ProcedureStepDescription": "Head^PI:Others",
  "ProtocolName": "BOLD_ep2d_3x3x3_dimension1",
  "PulseSequenceDetails": "%SiemensSeq%\\ep2d_pace",
  "ReceiveCoilActiveElements": "HC1-7",
  "ReceiveCoilName": "HeadNeck_64",
  "ReconMatrixPE": 70,
  "RefLinesPE": 24,
  "RepetitionTime": 2,
  "SAR": 0.147594,
  "ScanOptions": "FS",
  "ScanningSequence": "EP",
  "SequenceName": "*epfid2d1_70",
  "SequenceVariant": "SK",
  "SeriesDescription": "BOLD_ep2d_3x3x3_dimension1",
  "SeriesNumber": 7,
  "ShimSetting": [5048, 3667, 4435, 356, 9, -224, 223, 35],
  "SliceThickness": 3,
  "SliceTiming": [0.99, 0, 1.035, 0.045, 1.0825, 0.0925, 1.13, 0.14, 1.1775, 0.1875, 1.225, 0.235, 1.2725, 0.2825, 1.32, 0.33, 1.365, 0.375, 1.4125, 0.4225, 1.46, 0.47, 1.5075, 0.5175, 1.555, 0.565, 1.6025, 0.6125, 1.65, 0.66, 1.695, 0.705, 1.7425, 0.7525, 1.79, 0.8, 1.8375, 0.8475, 1.885, 0.895, 1.9325, 0.9425],
  "SoftwareVersions": "syngo MR E11",
  "SpacingBetweenSlices": 3,
  "StationName": "AWP66061",
  "TaskName": "dimension",
  "TotalReadoutTime": 0.018975,
  "TxRefAmp": 233.919,
  "dcmmeta_affine": [
    [-2.9997153282165527, -0.003665004391223192, 0.04117177426815033, 109.16451263427734],
    [-0.009851555339992046, 2.965463876724243, -0.453792005777359, -86.35477447509766],
    [0.040143419057130814, 0.4538841247558594, 2.9651944637298584, -60.673423767089844],
    [0.0, 0.0, 0.0, 1.0]
],
  "dcmmeta_reorient_transform": [
    [0.0, -1.0, 0.0, 69.0],
    [1.0, 0.0, 0.0, 0.0],
    [0.0, 0.0, -1.0, 41.0],
    [0.0, 0.0, 0.0, 1.0]
],
  "dcmmeta_shape": [70, 70, 42, 437],
  "dcmmeta_slice_dim": 2,
  "dcmmeta_version": 0.6,
  "global": {
    "const": {
      "AcquisitionMatrix": [70, 0, 0, 70],
      "AngioFlag": "N",
      "BitsAllocated": 16,
      "BitsStored": 12,
      "BodyPartExamined": "HEAD",
      "Columns": 490,
      "EchoNumbers": 1,
      "EchoTime": 22.0,
      "EchoTrainLength": 35,
      "FlipAngle": 90.0,
      "HighBit": 11,
      "ImageOrientationPatient": [0.99990507620401, 0.00328385165998, 0.01338113970185, -0.0012216681079, 0.9884879455662, -0.1512947090858],
      "ImagePositionPatient": [-739.77021855921, -724.47299239679, 179.10309916858],
      "ImageType": [
        "ORIGINAL",
        "PRIMARY",
        "M",
        "ND",
        "NORM",
        "MOSAIC"
],
      "ImagedNucleus": "1H",
      "ImagingFrequency": 123.254485,
      "InPlanePhaseEncodingDirection": "COL",
      "MRAcquisitionType": "2D",
      "MagneticFieldStrength": 3.0,
      "Manufacturer": "SIEMENS",
      "ManufacturerModelName": "Prisma",
      "Modality": "MR",
      "NumberOfAverages": 1.0,
      "NumberOfPhaseEncodingSteps": 70,
      "PercentPhaseFieldOfView": 100.0,
      "PercentSampling": 100.0,
      "PerformedProcedureStepStartTime": "125420.810000",
      "PhotometricInterpretation": "MONOCHROME2",
      "PixelBandwidth": 2165.0,
      "PixelRepresentation": 0,
      "PixelSpacing": [3.0, 3.0],
      "ProtocolName": "BOLD_ep2d_3x3x3_dimension1",
      "RepetitionTime": 2000.0,
      "Rows": 490,
      "SAR": 0.14759420940215,
      "SamplesPerPixel": 1,
      "ScanOptions": "FS",
      "ScanningSequence": "EP",
      "SequenceName": "*epfid2d1_70",
      "SequenceVariant": "SK",
      "SeriesDescription": "BOLD_ep2d_3x3x3_dimension1",
      "SeriesNumber": 7,
      "SeriesTime": "132834.054000",
      "SliceLocation": 77.591035447945,
      "SliceThickness": 3.0,
      "SmallestImagePixelValue": 0,
      "SoftwareVersions": "syngo MR E11",
      "SpacingBetweenSlices": 3.0000000418028,
      "SpecificCharacterSet": "ISO_IR 100",
      "StudyID": "1",
      "StudyTime": "125420.729000",
      "TransmitCoilName": "Body",
      "VariableFlipAngleFlag": "N",
      "WindowCenterWidthExplanation": "Algo1",
      "dBdt": 0.0},
    "slices": {}
  },
  "time": {
    "samples": {
      "AcquisitionNumber": [1, 2, 3, 4, 5, 6, 7, 8, 9, 10, 11, 12, 13, 14, 15, 16, 17, 18, 19, 20, 21, 22, 23, 24, 25, 26, 27, 28, 29, 30, 31, 32, 33, 34, 35, 36, 37, 38, 39, 40, 41, 42, 43, 44, 45, 46, 47, 48, 49, 50, 51, 52, 53, 54, 55, 56, 57, 58, 59, 60, 61, 62, 63, 64, 65, 66, 67, 68, 69, 70, 71, 72, 73, 74, 75, 76, 77, 78, 79, 80, 81, 82, 83, 84, 85, 86, 87, 88, 89, 90, 91, 92, 93, 94, 95, 96, 97, 98, 99, 100, 101, 102, 103, 104, 105, 106, 107, 108, 109, 110, 111, 112, 113, 114, 115, 116, 117, 118, 119, 120, 121, 122, 123, 124, 125, 126, 127, 128, 129, 130, 131, 132, 133, 134, 135, 136, 137, 138, 139, 140, 141, 142, 143, 144, 145, 146, 147, 148, 149, 150, 151, 152, 153, 154, 155, 156, 157, 158, 159, 160, 161, 162, 163, 164, 165, 166, 167, 168, 169, 170, 171, 172, 173, 174, 175, 176, 177, 178, 179, 180, 181, 182, 183, 184, 185, 186, 187, 188, 189, 190, 191, 192, 193, 194, 195, 196, 197, 198, 199, 200, 201, 202, 203, 204, 205, 206, 207, 208, 209, 210, 211, 212, 213, 214, 215, 216, 217, 218, 219, 220, 221, 222, 223, 224, 225, 226, 227, 228, 229, 230, 231, 232, 233, 234, 235, 236, 237, 238, 239, 240, 241, 242, 243, 244, 245, 246, 247, 248, 249, 250, 251, 252, 253, 254, 255, 256, 257, 258, 259, 260, 261, 262, 263, 264, 265, 266, 267, 268, 269, 270, 271, 272, 273, 274, 275, 276, 277, 278, 279, 280, 281, 282, 283, 284, 285, 286, 287, 288, 289, 290, 291, 292, 293, 294, 295, 296, 297, 298, 299, 300, 301, 302, 303, 304, 305, 306, 307, 308, 309, 310, 311, 312, 313, 314, 315, 316, 317, 318, 319, 320, 321, 322, 323, 324, 325, 326, 327, 328, 329, 330, 331, 332, 333, 334, 335, 336, 337, 338, 339, 340, 341, 342, 343, 344, 345, 346, 347, 348, 349, 350, 351, 352, 353, 354, 355, 356, 357, 358, 359, 360, 361, 362, 363, 364, 365, 366, 367, 368, 369, 370, 371, 372, 373, 374, 375, 376, 377, 378, 379, 380, 381, 382, 383, 384, 385, 386, 387, 388, 389, 390, 391, 392, 393, 394, 395, 396, 397, 398, 399, 400, 401, 402, 403, 404, 405, 406, 407, 408, 409, 410, 411, 412, 413, 414, 415, 416, 417, 418, 419, 420, 421, 422, 423, 424, 425, 426, 427, 428, 429, 430, 431, 432, 433, 434, 435, 436, 437],
      "AcquisitionTime": ["132828.105000", "132830.105000", "132832.105000", "132834.105000", "132836.105000", "132838.105000", "132840.105000", "132842.105000", "132844.105000", "132846.105000", "132848.105000", "132850.105000", "132852.105000", "132854.105000", "132856.105000", "132858.105000", "132900.105000", "132902.105000", "132904.105000", "132906.105000", "132908.105000", "132910.105000", "132912.105000", "132914.105000", "132916.105000", "132918.105000", "132920.105000", "132922.105000", "132924.105000", "132926.105000", "132928.105000", "132930.105000", "132932.105000", "132934.105000", "132936.105000", "132938.105000", "132940.105000", "132942.105000", "132944.105000", "132946.105000", "132948.105000", "132950.105000", "132952.105000", "132954.105000", "132956.105000", "132958.105000", "133000.105000", "133002.105000", "133004.105000", "133006.105000", "133008.105000", "133010.105000", "133012.105000", "133014.105000", "133016.105000", "133018.105000", "133020.105000", "133022.105000", "133024.105000", "133026.105000", "133028.105000", "133030.105000", "133032.105000", "133034.105000", "133036.105000", "133038.105000", "133040.105000", "133042.105000", "133044.105000", "133046.105000", "133048.105000", "133050.105000", "133052.105000", "133054.105000", "133056.105000", "133058.105000", "133100.105000", "133102.105000", "133104.105000", "133106.105000", "133108.105000", "133110.105000", "133112.105000", "133114.105000", "133116.105000", "133118.105000", "133120.105000", "133122.105000", "133124.105000", "133126.105000", "133128.105000", "133130.105000", "133132.105000", "133134.105000", "133136.105000", "133138.105000", "133140.105000", "133142.105000", "133144.105000", "133146.105000", "133148.105000", "133150.105000", "133152.105000", "133154.105000", "133156.105000", "133158.105000", "133200.105000", "133202.105000", "133204.105000", "133206.105000", "133208.105000", "133210.105000", "133212.105000", "133214.105000", "133216.105000", "133218.105000", "133220.105000", "133222.105000", "133224.105000", "133226.105000", "133228.105000", "133230.105000", "133232.105000", "133234.105000", "133236.105000", "133238.105000", "133240.105000", "133242.105000", "133244.105000", "133246.105000", "133248.105000", "133250.105000", "133252.105000", "133254.105000", "133256.105000", "133258.105000", "133300.105000", "133302.105000", "133304.105000", "133306.105000", "133308.105000", "133310.105000", "133312.105000", "133314.105000", "133316.105000", "133318.105000", "133320.105000", "133322.105000", "133324.105000", "133326.105000", "133328.105000", "133330.105000", "133332.105000", "133334.105000", "133336.105000", "133338.105000", "133340.105000", "133342.105000", "133344.105000", "133346.105000", "133348.105000", "133350.105000", "133352.105000", "133354.105000", "133356.105000", "133358.105000", "133400.105000", "133402.105000", "133404.105000", "133406.105000", "133408.105000", "133410.105000", "133412.105000", "133414.105000", "133416.105000", "133418.105000", "133420.105000", "133422.105000", "133424.105000", "133426.105000", "133428.105000", "133430.105000", "133432.105000", "133434.105000", "133436.105000", "133438.105000", "133440.105000", "133442.105000", "133444.105000", "133446.105000", "133448.105000", "133450.105000", "133452.105000", "133454.105000", "133456.105000", "133458.105000", "133500.105000", "133502.105000", "133504.105000", "133506.105000", "133508.105000", "133510.105000", "133512.105000", "133514.105000", "133516.105000", "133518.105000", "133520.105000", "133522.105000", "133524.105000", "133526.105000", "133528.105000", "133530.105000", "133532.105000", "133534.105000", "133536.105000", "133538.105000", "133540.105000", "133542.105000", "133544.105000", "133546.105000", "133548.105000", "133550.105000", "133552.105000", "133554.105000", "133556.105000", "133558.105000", "133600.105000", "133602.105000", "133604.105000", "133606.105000", "133608.105000", "133610.105000", "133612.105000", "133614.105000", "133616.105000", "133618.105000", "133620.105000", "133622.105000", "133624.105000", "133626.105000", "133628.105000", "133630.105000", "133632.105000", "133634.105000", "133636.105000", "133638.105000", "133640.105000", "133642.105000", "133644.105000", "133646.105000", "133648.105000", "133650.105000", "133652.105000", "133654.105000", "133656.105000", "133658.105000", "133700.105000", "133702.105000", "133704.105000", "133706.105000", "133708.105000", "133710.105000", "133712.105000", "133714.105000", "133716.105000", "133718.105000", "133720.105000", "133722.105000", "133724.105000", "133726.105000", "133728.105000", "133730.105000", "133732.105000", "133734.105000", "133736.105000", "133738.105000", "133740.105000", "133742.105000", "133744.105000", "133746.105000", "133748.105000", "133750.105000", "133752.105000", "133754.105000", "133756.105000", "133758.105000", "133800.105000", "133802.105000", "133804.105000", "133806.105000", "133808.105000", "133810.105000", "133812.105000", "133814.105000", "133816.105000", "133818.105000", "133820.105000", "133822.105000", "133824.105000", "133826.105000", "133828.105000", "133830.105000", "133832.105000", "133834.105000", "133836.105000", "133838.105000", "133840.105000", "133842.105000", "133844.105000", "133846.105000", "133848.105000", "133850.105000", "133852.105000", "133854.105000", "133856.105000", "133858.105000", "133900.105000", "133902.105000", "133904.105000", "133906.105000", "133908.105000", "133910.105000", "133912.105000", "133914.105000", "133916.105000", "133918.105000", "133920.105000", "133922.105000", "133924.105000", "133926.105000", "133928.105000", "133930.105000", "133932.105000", "133934.105000", "133936.105000", "133938.105000", "133940.105000", "133942.105000", "133944.105000", "133946.105000", "133948.105000", "133950.105000", "133952.105000", "133954.105000", "133956.105000", "133958.105000", "134000.105000", "134002.105000", "134004.105000", "134006.105000", "134008.105000", "134010.105000", "134012.105000", "134014.105000", "134016.105000", "134018.105000", "134020.105000", "134022.105000", "134024.105000", "134026.105000", "134028.105000", "134030.105000", "134032.105000", "134034.105000", "134036.105000", "134038.105000", "134040.105000", "134042.105000", "134044.105000", "134046.105000", "134048.105000", "134050.105000", "134052.105000", "134054.105000", "134056.105000", "134058.105000", "134100.105000", "134102.105000", "134104.105000", "134106.105000", "134108.105000", "134110.105000", "134112.105000", "134114.105000", "134116.105000", "134118.105000", "134120.105000", "134122.105000", "134124.105000", "134126.105000", "134128.105000", "134130.105000", "134132.105000", "134134.105000", "134136.105000", "134138.105000", "134140.105000", "134142.105000", "134144.105000", "134146.105000", "134148.105000", "134150.105000", "134152.105000", "134154.105000", "134156.105000", "134158.105000", "134200.105000", "134202.105000", "134204.105000", "134206.105000", "134208.105000", "134210.105000", "134212.105000", "134214.105000", "134216.105000", "134218.105000", "134220.105000", "134222.105000", "134224.105000", "134226.105000", "134228.105000", "134230.105000", "134232.105000", "134234.105000", "134236.105000", "134238.105000", "134240.105000", "134242.105000", "134244.105000", "134246.105000", "134248.105000", "134250.105000", "134252.105000", "134254.105000", "134256.105000", "134258.105000", "134300.105000"],
      "ContentTime": ["132834.057000", "132834.061000", "132834.064000", "132914.054000", "132914.057000", "132914.060000", "132914.062000", "132914.065000", "132914.068000", "132914.070000", "132914.073000", "132914.076000", "132914.085000", "132914.089000", "132914.092000", "132914.095000", "132914.102000", "132914.105000", "132914.108000", "132914.110000", "132914.113000", "132914.116000", "132914.118000", "132954.054000", "132954.057000", "132954.060000", "132954.062000", "132954.065000", "132954.068000", "132954.070000", "132954.073000", "132954.076000", "132954.085000", "132954.088000", "132954.090000", "132954.093000", "132954.096000", "132954.099000", "132954.101000", "132954.104000", "132954.106000", "132954.109000", "132954.112000", "133034.053000", "133034.056000", "133034.059000", "133034.061000", "133034.064000", "133034.067000", "133034.070000", "133034.072000", "133034.075000", "133034.078000", "133034.080000", "133034.083000", "133034.086000", "133034.088000", "133034.091000", "133034.094000", "133034.097000", "133034.099000", "133034.102000", "133034.105000", "133114.053000", "133114.056000", "133114.058000", "133114.061000", "133114.064000", "133114.082000", "133114.085000", "133114.087000", "133114.090000", "133114.093000", "133114.095000", "133114.098000", "133114.101000", "133114.103000", "133114.106000", "133114.109000", "133114.111000", "133114.114000", "133114.117000", "133114.120000", "133154.053000", "133154.056000", "133154.058000", "133154.061000", "133154.064000", "133154.067000", "133154.070000", "133154.072000", "133154.075000", "133154.078000", "133154.080000", "133154.083000", "133154.086000", "133154.088000", "133154.091000", "133154.094000", "133154.097000", "133154.099000", "133154.102000", "133154.105000", "133234.053000", "133234.056000", "133234.058000", "133234.061000", "133234.064000", "133234.066000", "133234.069000", "133234.072000", "133234.075000", "133234.077000", "133234.080000", "133234.083000", "133234.085000", "133234.088000", "133234.091000", "133234.093000", "133234.096000", "133234.099000", "133234.102000", "133234.104000", "133314.053000", "133314.056000", "133314.059000", "133314.061000", "133314.064000", "133314.067000", "133314.069000", "133314.072000", "133314.075000", "133314.077000", "133314.080000", "133314.083000", "133314.086000", "133314.088000", "133314.091000", "133314.094000", "133314.096000", "133314.099000", "133314.102000", "133314.105000", "133354.053000", "133354.056000", "133354.059000", "133354.061000", "133354.064000", "133354.067000", "133354.070000", "133354.072000", "133354.075000", "133354.078000", "133354.080000", "133354.083000", "133354.086000", "133354.089000", "133354.091000", "133354.094000", "133354.097000", "133354.099000", "133354.102000", "133354.105000", "133434.054000", "133434.057000", "133434.060000", "133434.062000", "133434.065000", "133434.067000", "133434.070000", "133434.073000", "133434.076000", "133434.078000", "133434.081000", "133434.084000", "133434.087000", "133434.089000", "133434.092000", "133434.095000", "133434.097000", "133434.100000", "133434.103000", "133434.105000", "133514.053000", "133514.056000", "133514.059000", "133514.061000", "133514.064000", "133514.067000", "133514.069000", "133514.072000", "133514.075000", "133514.077000", "133514.080000", "133514.083000", "133514.086000", "133514.088000", "133514.097000", "133514.099000", "133514.102000", "133514.105000", "133514.107000", "133514.110000", "133554.053000", "133554.056000", "133554.059000", "133554.062000", "133554.064000", "133554.067000", "133554.070000", "133554.073000", "133554.075000", "133554.086000", "133554.089000", "133554.092000", "133554.094000", "133554.097000", "133554.100000", "133554.103000", "133554.106000", "133554.108000", "133554.111000", "133554.114000", "133634.053000", "133634.056000", "133634.059000", "133634.061000", "133634.064000", "133634.067000", "133634.070000", "133634.072000", "133634.075000", "133634.078000", "133634.080000", "133634.083000", "133634.086000", "133634.089000", "133634.091000", "133634.094000", "133634.097000", "133634.100000", "133634.102000", "133634.105000", "133714.053000", "133714.056000", "133714.059000", "133714.061000", "133714.064000", "133714.067000", "133714.069000", "133714.072000", "133714.075000", "133714.078000", "133714.080000", "133714.083000", "133714.086000", "133714.089000", "133714.091000", "133714.094000", "133714.097000", "133714.099000", "133714.102000", "133714.105000", "133754.053000", "133754.056000", "133754.059000", "133754.061000", "133754.064000", "133754.067000", "133754.070000", "133754.072000", "133754.075000", "133754.078000", "133754.080000", "133754.083000", "133754.086000", "133754.089000", "133754.091000", "133754.094000", "133754.097000", "133754.099000", "133754.102000", "133754.105000", "133834.053000", "133834.056000", "133834.059000", "133834.061000", "133834.064000", "133834.067000", "133834.070000", "133834.072000", "133834.075000", "133834.078000", "133834.081000", "133834.083000", "133834.086000", "133834.089000", "133834.091000", "133834.094000", "133834.097000", "133834.100000", "133834.102000", "133834.105000", "133914.054000", "133914.057000", "133914.060000", "133914.076000", "133914.079000", "133914.082000", "133914.085000", "133914.087000", "133914.090000", "133914.093000", "133914.096000", "133914.098000", "133914.101000", "133914.104000", "133914.106000", "133914.109000", "133914.112000", "133914.115000", "133914.117000", "133914.120000", "133954.053000", "133954.056000", "133954.059000", "133954.061000", "133954.064000", "133954.067000", "133954.070000", "133954.072000", "133954.075000", "133954.078000", "133954.081000", "133954.083000", "133954.086000", "133954.089000", "133954.091000", "133954.094000", "133954.097000", "133954.100000", "133954.102000", "133954.105000", "134034.053000", "134034.056000", "134034.058000", "134034.061000", "134034.064000", "134034.067000", "134034.070000", "134034.072000", "134034.075000", "134034.078000", "134034.080000", "134034.083000", "134034.086000", "134034.089000", "134034.091000", "134034.094000", "134034.097000", "134034.100000", "134034.102000", "134034.105000", "134114.053000", "134114.056000", "134114.058000", "134114.061000", "134114.064000", "134114.067000", "134114.069000", "134114.072000", "134114.075000", "134114.078000", "134114.080000", "134114.083000", "134114.086000", "134114.088000", "134114.091000", "134114.094000", "134114.097000", "134114.099000", "134114.102000", "134114.105000", "134154.053000", "134154.056000", "134154.058000", "134154.061000", "134154.064000", "134154.067000", "134154.069000", "134154.072000", "134154.075000", "134154.078000", "134154.081000", "134154.083000", "134154.086000", "134154.089000", "134154.091000", "134154.094000", "134154.097000", "134154.100000", "134154.103000", "134154.105000", "134234.053000", "134234.056000", "134234.059000", "134234.061000", "134234.064000", "134234.067000", "134234.070000", "134234.072000", "134234.075000", "134234.078000", "134234.080000", "134234.083000", "134234.086000", "134234.089000", "134234.091000", "134234.094000", "134234.097000", "134234.100000", "134234.102000", "134234.105000", "134301.461000", "134301.464000", "134301.467000", "134301.471000", "134301.474000", "134301.476000", "134301.479000", "134301.482000", "134301.484000", "134301.487000", "134301.490000", "134301.497000", "134301.501000", "134301.504000"],
      "DataSetTrailingPadding": [
        "\u0000\u0000\u0000\u0000\u0000\u0000\u0000\u0000\u0000\u0000\u0000\u0000\u0000\u0000\u0000\u0000\u0000\u0000\u0000\u0000\u0000\u0000\u0000\u0000\u0000\u0000\u0000\u0000\u0000\u0000\u0000\u0000\u0000\u0000\u0000\u0000\u0000\u0000\u0000\u0000\u0000\u0000\u0000\u0000\u0000\u0000\u0000\u0000\u0000\u0000\u0000\u0000\u0000\u0000\u0000\u0000\u0000\u0000\u0000\u0000\u0000\u0000\u0000\u0000\u0000\u0000\u0000\u0000\u0000\u0000\u0000\u0000\u0000\u0000\u0000\u0000\u0000\u0000\u0000\u0000\u0000\u0000\u0000\u0000\u0000\u0000\u0000\u0000\u0000\u0000\u0000\u0000\u0000\u0000\u0000\u0000\u0000\u0000\u0000\u0000\u0000\u0000\u0000\u0000\u0000\u0000\u0000\u0000\u0000\u0000\u0000\u0000\u0000\u0000\u0000\u0000\u0000\u0000\u0000\u0000\u0000\u0000\u0000\u0000\u0000\u0000\u0000\u0000\u0000\u0000\u0000\u0000\u0000\u0000\u0000\u0000\u0000\u0000\u0000\u0000\u0000\u0000\u0000\u0000\u0000\u0000\u0000\u0000\u0000\u0000\u0000\u0000\u0000\u0000\u0000\u0000\u0000\u0000\u0000\u0000\u0000\u0000\u0000\u0000\u0000\u0000\u0000\u0000\u0000\u0000\u0000\u0000\u0000\u0000\u0000\u0000\u0000\u0000\u0000\u0000\u0000\u0000\u0000\u0000\u0000\u0000\u0000\u0000\u0000\u0000\u0000\u0000\u0000\u0000\u0000\u0000\u0000\u0000\u0000\u0000\u0000\u0000\u0000\u0000\u0000\u0000\u0000\u0000\u0000\u0000\u0000\u0000\u0000\u0000\u0000\u0000\u0000\u0000\u0000\u0000\u0000\u0000\u0000\u0000\u0000\u0000\u0000\u0000\u0000\u0000\u0000\u0000\u0000\u0000\u0000\u0000\u0000\u0000\u0000\u0000\u0000\u0000\u0000\u0000\u0000\u0000\u0000\u0000\u0000\u0000\u0000\u0000\u0000\u0000\u0000\u0000\u0000\u0000\u0000\u0000\u0000\u0000\u0000\u0000\u0000\u0000\u0000\u0000\u0000\u0000\u0000\u0000\u0000\u0000\u0000\u0000\u0000\u0000\u0000\u0000\u0000\u0000\u0000\u0000\u0000\u0000\u0000\u0000\u0000\u0000\u0000\u0000\u0000\u0000\u0000\u0000\u0000\u0000\u0000\u0000\u0000\u0000\u0000\u0000\u0000\u0000",
        "\u0000\u0000\u0000\u0000\u0000\u0000\u0000\u0000\u0000\u0000\u0000\u0000\u0000\u0000\u0000\u0000\u0000\u0000\u0000\u0000\u0000\u0000\u0000\u0000\u0000\u0000\u0000\u0000\u0000\u0000\u0000\u0000\u0000\u0000\u0000\u0000\u0000\u0000\u0000\u0000\u0000\u0000\u0000\u0000\u0000\u0000\u0000\u0000\u0000\u0000\u0000\u0000\u0000\u0000\u0000\u0000\u0000\u0000\u0000\u0000\u0000\u0000\u0000\u0000\u0000\u0000\u0000\u0000\u0000\u0000\u0000\u0000\u0000\u0000\u0000\u0000\u0000\u0000\u0000\u0000\u0000\u0000\u0000\u0000\u0000\u0000\u0000\u0000\u0000\u0000\u0000\u0000\u0000\u0000\u0000\u0000\u0000\u0000\u0000\u0000\u0000\u0000\u0000\u0000\u0000\u0000\u0000\u0000\u0000\u0000\u0000\u0000\u0000\u0000\u0000\u0000\u0000\u0000\u0000\u0000\u0000\u0000\u0000\u0000\u0000\u0000\u0000\u0000\u0000\u0000\u0000\u0000\u0000\u0000\u0000\u0000\u0000\u0000\u0000\u0000\u0000\u0000\u0000\u0000\u0000\u0000\u0000\u0000\u0000\u0000\u0000\u0000\u0000\u0000\u0000\u0000\u0000\u0000\u0000\u0000\u0000\u0000\u0000\u0000\u0000\u0000\u0000\u0000\u0000\u0000\u0000\u0000\u0000\u0000\u0000\u0000\u0000\u0000\u0000\u0000\u0000\u0000\u0000\u0000\u0000\u0000\u0000\u0000\u0000\u0000\u0000\u0000\u0000\u0000\u0000\u0000\u0000\u0000\u0000\u0000\u0000\u0000\u0000\u0000\u0000\u0000\u0000\u0000\u0000\u0000\u0000\u0000\u0000\u0000\u0000\u0000\u0000\u0000\u0000\u0000\u0000\u0000\u0000\u0000\u0000\u0000\u0000\u0000\u0000\u0000\u0000\u0000\u0000\u0000\u0000\u0000\u0000\u0000\u0000\u0000\u0000\u0000\u0000\u0000\u0000\u0000\u0000\u0000\u0000\u0000\u0000\u0000\u0000\u0000\u0000\u0000\u0000\u0000\u0000\u0000\u0000\u0000\u0000\u0000\u0000\u0000\u0000\u0000\u0000\u0000\u0000\u0000\u0000\u0000\u0000\u0000\u0000\u0000\u0000\u0000\u0000\u0000\u0000\u0000\u0000\u0000\u0000\u0000\u0000\u0000\u0000\u0000\u0000\u0000\u0000\u0000\u0000\u0000\u0000\u0000\u0000\u0000\u0000\u0000\u0000\u0000",
        "\u0000\u0000\u0000\u0000\u0000\u0000\u0000\u0000\u0000\u0000\u0000\u0000\u0000\u0000\u0000\u0000\u0000\u0000\u0000\u0000\u0000\u0000\u0000\u0000\u0000\u0000\u0000\u0000\u0000\u0000\u0000\u0000\u0000\u0000\u0000\u0000\u0000\u0000\u0000\u0000\u0000\u0000\u0000\u0000\u0000\u0000\u0000\u0000\u0000\u0000\u0000\u0000\u0000\u0000\u0000\u0000\u0000\u0000\u0000\u0000\u0000\u0000\u0000\u0000\u0000\u0000\u0000\u0000\u0000\u0000\u0000\u0000\u0000\u0000\u0000\u0000\u0000\u0000\u0000\u0000\u0000\u0000\u0000\u0000\u0000\u0000\u0000\u0000\u0000\u0000\u0000\u0000\u0000\u0000\u0000\u0000\u0000\u0000\u0000\u0000\u0000\u0000\u0000\u0000\u0000\u0000\u0000\u0000\u0000\u0000\u0000\u0000\u0000\u0000\u0000\u0000\u0000\u0000\u0000\u0000\u0000\u0000\u0000\u0000\u0000\u0000\u0000\u0000\u0000\u0000\u0000\u0000\u0000\u0000\u0000\u0000\u0000\u0000\u0000\u0000\u0000\u0000\u0000\u0000\u0000\u0000\u0000\u0000\u0000\u0000\u0000\u0000\u0000\u0000\u0000\u0000\u0000\u0000\u0000\u0000\u0000\u0000\u0000\u0000\u0000\u0000\u0000\u0000\u0000\u0000\u0000\u0000\u0000\u0000\u0000\u0000\u0000\u0000\u0000\u0000\u0000\u0000\u0000\u0000\u0000\u0000\u0000\u0000\u0000\u0000\u0000\u0000\u0000\u0000\u0000\u0000\u0000\u0000\u0000\u0000\u0000\u0000\u0000\u0000\u0000\u0000\u0000\u0000\u0000\u0000\u0000\u0000\u0000\u0000\u0000\u0000\u0000\u0000\u0000\u0000\u0000\u0000\u0000\u0000\u0000\u0000\u0000\u0000\u0000\u0000\u0000\u0000\u0000\u0000\u0000\u0000\u0000\u0000\u0000\u0000\u0000\u0000\u0000\u0000\u0000\u0000\u0000\u0000\u0000\u0000\u0000\u0000\u0000\u0000\u0000\u0000\u0000\u0000\u0000\u0000\u0000\u0000\u0000\u0000\u0000\u0000\u0000\u0000\u0000\u0000\u0000\u0000\u0000\u0000\u0000\u0000\u0000\u0000\u0000\u0000\u0000\u0000\u0000\u0000\u0000\u0000\u0000\u0000\u0000\u0000\u0000\u0000\u0000\u0000\u0000\u0000\u0000\u0000\u0000\u0000\u0000\u0000\u0000\u0000\u0000\u0000",
        "\u0000\u0000\u0000\u0000\u0000\u0000\u0000\u0000\u0000\u0000\u0000\u0000\u0000\u0000\u0000\u0000\u0000\u0000\u0000\u0000\u0000\u0000\u0000\u0000\u0000\u0000\u0000\u0000\u0000\u0000\u0000\u0000\u0000\u0000\u0000\u0000\u0000\u0000\u0000\u0000\u0000\u0000\u0000\u0000\u0000\u0000\u0000\u0000\u0000\u0000\u0000\u0000\u0000\u0000\u0000\u0000\u0000\u0000\u0000\u0000\u0000\u0000\u0000\u0000\u0000\u0000\u0000\u0000\u0000\u0000\u0000\u0000\u0000\u0000\u0000\u0000\u0000\u0000\u0000\u0000\u0000\u0000\u0000\u0000\u0000\u0000\u0000\u0000\u0000\u0000\u0000\u0000\u0000\u0000\u0000\u0000\u0000\u0000\u0000\u0000\u0000\u0000\u0000\u0000\u0000\u0000\u0000\u0000\u0000\u0000\u0000\u0000\u0000\u0000\u0000\u0000\u0000\u0000\u0000\u0000\u0000\u0000\u0000\u0000\u0000\u0000\u0000\u0000\u0000\u0000\u0000\u0000\u0000\u0000\u0000\u0000\u0000\u0000\u0000\u0000\u0000\u0000\u0000\u0000\u0000\u0000\u0000\u0000\u0000\u0000\u0000\u0000\u0000\u0000\u0000\u0000\u0000\u0000\u0000\u0000\u0000\u0000\u0000\u0000\u0000\u0000\u0000\u0000\u0000\u0000\u0000\u0000\u0000\u0000\u0000\u0000\u0000\u0000\u0000\u0000\u0000\u0000\u0000\u0000\u0000\u0000\u0000\u0000\u0000\u0000\u0000\u0000\u0000\u0000\u0000\u0000\u0000\u0000\u0000\u0000\u0000\u0000\u0000\u0000\u0000\u0000\u0000\u0000\u0000\u0000\u0000\u0000\u0000\u0000\u0000\u0000\u0000\u0000\u0000\u0000\u0000\u0000\u0000\u0000\u0000\u0000\u0000\u0000\u0000\u0000\u0000\u0000\u0000\u0000\u0000\u0000\u0000\u0000\u0000\u0000\u0000\u0000\u0000\u0000\u0000\u0000\u0000\u0000\u0000\u0000\u0000\u0000\u0000\u0000\u0000\u0000\u0000\u0000\u0000\u0000\u0000\u0000\u0000\u0000\u0000\u0000\u0000\u0000\u0000\u0000\u0000\u0000\u0000\u0000\u0000\u0000\u0000\u0000\u0000\u0000\u0000\u0000\u0000\u0000\u0000\u0000\u0000\u0000\u0000\u0000\u0000\u0000\u0000\u0000\u0000\u0000\u0000\u0000\u0000\u0000\u0000\u0000\u0000\u0000\u0000\u0000",
