{
  "AcquisitionMatrixPE": 70,
  "AcquisitionNumber": 1,
  "AcquisitionTime": "13:15:20.057500",
  "BandwidthPerPixelPhaseEncode": 51.948,
  "BaseResolution": 70,
  "BodyPartExamined": "HEAD",
  "CoilCombinationMethod": "Sum of Squares",
  "ConsistencyInfo": "N4_VE11C_LATEST_20160120",
  "ConversionSoftware": "dcm2niix",
  "ConversionSoftwareVersion": "v1.0.20220720",
  "DerivedVendorReportedEchoSpacing": 0.000550001,
  "DeviceSerialNumber": "66061",
  "DwellTime": 3.3e-06,
  "EchoTime": 0.022,
  "EchoTrainLength": 35,
  "EffectiveEchoSpacing": 0.000275,
  "FlipAngle": 90,
  "HeudiconvVersion": "1.1.1",
  "ImageOrientationPatientDICOM": [0.999905, 0.00328385, 0.0133811, -0.00122167, 0.988488, -0.151295],
  "ImageOrientationText": "Tra>Cor(-8.7)>Sag(0.8)",
  "ImageType": [
    "ORIGINAL",
    "PRIMARY",
    "M",
    "ND",
    "NORM",
    "MOSAIC"
],
  "ImagingFrequency": 123.254,
  "InPlanePhaseEncodingDirectionDICOM": "COL",
  "InstitutionAddress": "Street StreetNo,City/1c4204/,District,KR,ZIP",
  "InstitutionName": "SKKU",
  "InstitutionalDepartmentName": "Department",
  "MRAcquisitionType": "2D",
  "MagneticFieldStrength": 3,
  "Manufacturer": "Siemens",
  "ManufacturersModelName": "Prisma",
  "MatrixCoilMode": "GRAPPA",
  "Modality": "MR",
  "NonlinearGradientCorrection": false,
  "ParallelReductionFactorInPlane": 2,
  "PartialFourier": 1,
  "PatientPosition": "HFS",
  "PercentPhaseFOV": 100,
  "PercentSampling": 100,
  "PhaseEncodingDirection": "j-",
  "PhaseEncodingSteps": 70,
  "PhaseResolution": 1,
  "PixelBandwidth": 2165,
  "ProcedureStepDescription": "Head^PI:Others",
  "ProtocolName": "BOLD_ep2d_3x3x3_response2",
  "PulseSequenceDetails": "%SiemensSeq%\\ep2d_pace",
  "ReceiveCoilActiveElements": "HC1-7",
  "ReceiveCoilName": "HeadNeck_64",
  "ReconMatrixPE": 70,
  "RefLinesPE": 24,
  "RepetitionTime": 2,
  "SAR": 0.147594,
  "ScanOptions": "FS",
  "ScanningSequence": "EP",
  "SequenceName": "*epfid2d1_70",
  "SequenceVariant": "SK",
  "SeriesDescription": "BOLD_ep2d_3x3x3_response2",
  "SeriesNumber": 6,
  "ShimSetting": [5048, 3667, 4435, 356, 9, -224, 223, 35],
  "SliceThickness": 3,
  "SliceTiming": [0.99, 0, 1.0375, 0.0475, 1.0825, 0.0925, 1.13, 0.14, 1.1775, 0.1875, 1.225, 0.235, 1.2725, 0.2825, 1.32, 0.33, 1.365, 0.3775, 1.4125, 0.4225, 1.46, 0.47, 1.5075, 0.5175, 1.555, 0.565, 1.6025, 0.6125, 1.65, 0.66, 1.695, 0.7075, 1.7425, 0.7525, 1.79, 0.8, 1.8375, 0.8475, 1.885, 0.895, 1.9325, 0.9425],
  "SoftwareVersions": "syngo MR E11",
  "SpacingBetweenSlices": 3,
  "StationName": "AWP66061",
  "TaskName": "response",
  "TotalReadoutTime": 0.018975,
  "TxRefAmp": 233.919,
  "dcmmeta_affine": [
    [-2.9997153282165527, -0.003665004391223192, 0.04117177426815033, 109.16451263427734],
    [-0.009851555339992046, 2.965463876724243, -0.453792005777359, -86.35477447509766],
    [0.040143419057130814, 0.4538841247558594, 2.9651944637298584, -60.673423767089844],
    [0.0, 0.0, 0.0, 1.0]
],
  "dcmmeta_reorient_transform": [
    [0.0, -1.0, 0.0, 69.0],
    [1.0, 0.0, 0.0, 0.0],
    [0.0, 0.0, -1.0, 41.0],
    [0.0, 0.0, 0.0, 1.0]
],
  "dcmmeta_shape": [70, 70, 42, 341],
  "dcmmeta_slice_dim": 2,
  "dcmmeta_version": 0.6,
  "global": {
    "const": {
      "AcquisitionMatrix": [70, 0, 0, 70],
      "AngioFlag": "N",
      "BitsAllocated": 16,
      "BitsStored": 12,
      "BodyPartExamined": "HEAD",
      "Columns": 490,
      "EchoNumbers": 1,
      "EchoTime": 22.0,
      "EchoTrainLength": 35,
      "FlipAngle": 90.0,
      "HighBit": 11,
      "ImageOrientationPatient": [0.99990507620401, 0.00328385165998, 0.01338113970185, -0.0012216681079, 0.9884879455662, -0.1512947090858],
      "ImagePositionPatient": [-739.77021855921, -724.47299239679, 179.10309916858],
      "ImageType": [
        "ORIGINAL",
        "PRIMARY",
        "M",
        "ND",
        "NORM",
        "MOSAIC"
],
      "ImagedNucleus": "1H",
      "ImagingFrequency": 123.254477,
      "InPlanePhaseEncodingDirection": "COL",
      "MRAcquisitionType": "2D",
      "MagneticFieldStrength": 3.0,
      "Manufacturer": "SIEMENS",
      "ManufacturerModelName": "Prisma",
      "Modality": "MR",
      "NumberOfAverages": 1.0,
      "NumberOfPhaseEncodingSteps": 70,
      "PercentPhaseFieldOfView": 100.0,
      "PercentSampling": 100.0,
      "PerformedProcedureStepStartTime": "125420.810000",
      "PhotometricInterpretation": "MONOCHROME2",
      "PixelBandwidth": 2165.0,
      "PixelRepresentation": 0,
      "PixelSpacing": [3.0, 3.0],
      "ProtocolName": "BOLD_ep2d_3x3x3_response2",
      "RepetitionTime": 2000.0,
      "Rows": 490,
      "SAR": 0.14759372389313,
      "SamplesPerPixel": 1,
      "ScanOptions": "FS",
      "ScanningSequence": "EP",
      "SequenceName": "*epfid2d1_70",
      "SequenceVariant": "SK",
      "SeriesDescription": "BOLD_ep2d_3x3x3_response2",
      "SeriesNumber": 6,
      "SeriesTime": "131612.482000",
      "SliceLocation": 77.591035447945,
      "SliceThickness": 3.0,
      "SmallestImagePixelValue": 0,
      "SoftwareVersions": "syngo MR E11",
      "SpacingBetweenSlices": 3.0000000418028,
      "SpecificCharacterSet": "ISO_IR 100",
      "StudyID": "1",
      "StudyTime": "125420.729000",
      "TransmitCoilName": "Body",
      "VariableFlipAngleFlag": "N",
      "WindowCenterWidthExplanation": "Algo1",
      "dBdt": 0.0},
    "slices": {}
  },
  "time": {
    "samples": {
      "AcquisitionNumber": [1, 2, 3, 4, 5, 6, 7, 8, 9, 10, 11, 12, 13, 14, 15, 16, 17, 18, 19, 20, 21, 22, 23, 24, 25, 26, 27, 28, 29, 30, 31, 32, 33, 34, 35, 36, 37, 38, 39, 40, 41, 42, 43, 44, 45, 46, 47, 48, 49, 50, 51, 52, 53, 54, 55, 56, 57, 58, 59, 60, 61, 62, 63, 64, 65, 66, 67, 68, 69, 70, 71, 72, 73, 74, 75, 76, 77, 78, 79, 80, 81, 82, 83, 84, 85, 86, 87, 88, 89, 90, 91, 92, 93, 94, 95, 96, 97, 98, 99, 100, 101, 102, 103, 104, 105, 106, 107, 108, 109, 110, 111, 112, 113, 114, 115, 116, 117, 118, 119, 120, 121, 122, 123, 124, 125, 126, 127, 128, 129, 130, 131, 132, 133, 134, 135, 136, 137, 138, 139, 140, 141, 142, 143, 144, 145, 146, 147, 148, 149, 150, 151, 152, 153, 154, 155, 156, 157, 158, 159, 160, 161, 162, 163, 164, 165, 166, 167, 168, 169, 170, 171, 172, 173, 174, 175, 176, 177, 178, 179, 180, 181, 182, 183, 184, 185, 186, 187, 188, 189, 190, 191, 192, 193, 194, 195, 196, 197, 198, 199, 200, 201, 202, 203, 204, 205, 206, 207, 208, 209, 210, 211, 212, 213, 214, 215, 216, 217, 218, 219, 220, 221, 222, 223, 224, 225, 226, 227, 228, 229, 230, 231, 232, 233, 234, 235, 236, 237, 238, 239, 240, 241, 242, 243, 244, 245, 246, 247, 248, 249, 250, 251, 252, 253, 254, 255, 256, 257, 258, 259, 260, 261, 262, 263, 264, 265, 266, 267, 268, 269, 270, 271, 272, 273, 274, 275, 276, 277, 278, 279, 280, 281, 282, 283, 284, 285, 286, 287, 288, 289, 290, 291, 292, 293, 294, 295, 296, 297, 298, 299, 300, 301, 302, 303, 304, 305, 306, 307, 308, 309, 310, 311, 312, 313, 314, 315, 316, 317, 318, 319, 320, 321, 322, 323, 324, 325, 326, 327, 328, 329, 330, 331, 332, 333, 334, 335, 336, 337, 338, 339, 340, 341],
      "AcquisitionTime": ["131520.057500", "131522.057500", "131524.057500", "131526.057500", "131528.057500", "131530.057500", "131532.057500", "131534.057500", "131536.057500", "131538.057500", "131540.057500", "131542.057500", "131544.057500", "131546.057500", "131548.057500", "131550.057500", "131552.057500", "131554.057500", "131556.057500", "131558.057500", "131600.057500", "131602.057500", "131604.057500", "131606.057500", "131608.057500", "131610.057500", "131612.057500", "131614.057500", "131616.057500", "131618.057500", "131620.057500", "131622.057500", "131624.057500", "131626.057500", "131628.057500", "131630.057500", "131632.057500", "131634.057500", "131636.057500", "131638.057500", "131640.057500", "131642.057500", "131644.057500", "131646.057500", "131648.057500", "131650.057500", "131652.057500", "131654.057500", "131656.057500", "131658.057500", "131700.057500", "131702.057500", "131704.057500", "131706.057500", "131708.057500", "131710.057500", "131712.057500", "131714.057500", "131716.057500", "131718.057500", "131720.057500", "131722.057500", "131724.057500", "131726.057500", "131728.057500", "131730.057500", "131732.057500", "131734.057500", "131736.057500", "131738.057500", "131740.057500", "131742.057500", "131744.057500", "131746.057500", "131748.057500", "131750.057500", "131752.057500", "131754.057500", "131756.057500", "131758.057500", "131800.057500", "131802.057500", "131804.057500", "131806.057500", "131808.057500", "131810.057500", "131812.057500", "131814.057500", "131816.057500", "131818.057500", "131820.057500", "131822.057500", "131824.057500", "131826.057500", "131828.057500", "131830.057500", "131832.057500", "131834.057500", "131836.057500", "131838.057500", "131840.057500", "131842.057500", "131844.057500", "131846.057500", "131848.057500", "131850.057500", "131852.057500", "131854.057500", "131856.057500", "131858.057500", "131900.057500", "131902.057500", "131904.057500", "131906.057500", "131908.057500", "131910.057500", "131912.057500", "131914.057500", "131916.057500", "131918.057500", "131920.057500", "131922.057500", "131924.057500", "131926.057500", "131928.057500", "131930.057500", "131932.057500", "131934.057500", "131936.057500", "131938.057500", "131940.057500", "131942.057500", "131944.057500", "131946.057500", "131948.057500", "131950.057500", "131952.057500", "131954.057500", "131956.057500", "131958.057500", "132000.057500", "132002.057500", "132004.057500", "132006.057500", "132008.057500", "132010.057500", "132012.057500", "132014.057500", "132016.057500", "132018.057500", "132020.057500", "132022.057500", "132024.057500", "132026.057500", "132028.057500", "132030.057500", "132032.057500", "132034.057500", "132036.057500", "132038.057500", "132040.057500", "132042.057500", "132044.057500", "132046.057500", "132048.057500", "132050.057500", "132052.057500", "132054.057500", "132056.057500", "132058.057500", "132100.057500", "132102.057500", "132104.057500", "132106.057500", "132108.057500", "132110.057500", "132112.057500", "132114.057500", "132116.057500", "132118.057500", "132120.057500", "132122.057500", "132124.057500", "132126.057500", "132128.057500", "132130.057500", "132132.057500", "132134.057500", "132136.057500", "132138.057500", "132140.057500", "132142.057500", "132144.057500", "132146.057500", "132148.057500", "132150.057500", "132152.057500", "132154.057500", "132156.057500", "132158.057500", "132200.057500", "132202.057500", "132204.057500", "132206.057500", "132208.057500", "132210.057500", "132212.057500", "132214.057500", "132216.057500", "132218.057500", "132220.057500", "132222.057500", "132224.057500", "132226.057500", "132228.057500", "132230.057500", "132232.057500", "132234.057500", "132236.057500", "132238.057500", "132240.057500", "132242.057500", "132244.057500", "132246.057500", "132248.057500", "132250.057500", "132252.057500", "132254.057500", "132256.057500", "132258.057500", "132300.057500", "132302.057500", "132304.057500", "132306.057500", "132308.057500", "132310.057500", "132312.057500", "132314.057500", "132316.057500", "132318.057500", "132320.057500", "132322.057500", "132324.057500", "132326.057500", "132328.057500", "132330.057500", "132332.057500", "132334.057500", "132336.057500", "132338.057500", "132340.057500", "132342.057500", "132344.057500", "132346.057500", "132348.057500", "132350.057500", "132352.057500", "132354.057500", "132356.057500", "132358.057500", "132400.057500", "132402.057500", "132404.057500", "132406.057500", "132408.057500", "132410.057500", "132412.057500", "132414.057500", "132416.057500", "132418.057500", "132420.057500", "132422.057500", "132424.057500", "132426.057500", "132428.057500", "132430.057500", "132432.057500", "132434.057500", "132436.057500", "132438.057500", "132440.057500", "132442.057500", "132444.057500", "132446.057500", "132448.057500", "132450.057500", "132452.057500", "132454.057500", "132456.057500", "132458.057500", "132500.057500", "132502.057500", "132504.057500", "132506.057500", "132508.057500", "132510.057500", "132512.057500", "132514.057500", "132516.057500", "132518.057500", "132520.057500", "132522.057500", "132524.057500", "132526.057500", "132528.057500", "132530.057500", "132532.057500", "132534.057500", "132536.057500", "132538.057500", "132540.057500", "132542.057500", "132544.057500", "132546.057500", "132548.057500", "132550.057500", "132552.057500", "132554.057500", "132556.057500", "132558.057500", "132600.057500", "132602.057500", "132604.057500", "132606.057500", "132608.057500", "132610.057500", "132612.057500", "132614.057500", "132616.057500", "132618.057500", "132620.057500", "132622.057500", "132624.057500", "132626.057500", "132628.057500", "132630.057500", "132632.057500", "132634.057500", "132636.057500", "132638.057500", "132640.057500"],
      "ContentTime": ["131612.485000", "131612.489000", "131612.492000", "131612.495000", "131612.497000", "131612.500000", "131612.503000", "131612.506000", "131612.508000", "131612.511000", "131612.513000", "131612.516000", "131612.519000", "131612.522000", "131612.529000", "131612.532000", "131612.538000", "131612.541000", "131612.543000", "131612.546000", "131612.549000", "131612.552000", "131612.555000", "131612.557000", "131612.560000", "131612.563000", "131652.479000", "131652.482000", "131652.485000", "131652.488000", "131652.490000", "131652.493000", "131652.496000", "131652.498000", "131652.501000", "131652.504000", "131652.507000", "131652.509000", "131652.512000", "131652.519000", "131652.521000", "131652.524000", "131652.527000", "131652.529000", "131652.532000", "131652.539000", "131732.480000", "131732.482000", "131732.485000", "131732.488000", "131732.490000", "131732.493000", "131732.496000", "131732.499000", "131732.501000", "131732.504000", "131732.507000", "131732.509000", "131732.512000", "131732.515000", "131732.517000", "131732.520000", "131732.523000", "131732.526000", "131732.528000", "131732.531000", "131752.480000", "131752.483000", "131752.485000", "131752.488000", "131752.497000", "131752.499000", "131752.502000", "131752.504000", "131752.507000", "131752.510000", "131832.480000", "131832.483000", "131832.486000", "131832.489000", "131832.492000", "131832.494000", "131832.497000", "131832.500000", "131832.503000", "131832.505000", "131832.508000", "131832.511000", "131832.513000", "131832.516000", "131832.529000", "131832.531000", "131832.534000", "131832.537000", "131832.540000", "131832.542000", "131912.480000", "131912.482000", "131912.485000", "131912.488000", "131912.491000", "131912.493000", "131912.496000", "131912.499000", "131912.502000", "131912.504000", "131912.507000", "131912.510000", "131912.512000", "131912.515000", "131912.518000", "131912.521000", "131912.523000", "131912.531000", "131912.534000", "131912.537000", "131952.480000", "131952.483000", "131952.485000", "131952.488000", "131952.499000", "131952.501000", "131952.504000", "131952.507000", "131952.510000", "131952.512000", "131952.515000", "131952.518000", "131952.520000", "131952.523000", "131952.526000", "131952.528000", "131952.531000", "131952.534000", "131952.536000", "131952.539000", "132032.480000", "132032.482000", "132032.485000", "132032.488000", "132032.491000", "132032.493000", "132032.496000", "132032.499000", "132032.502000", "132032.504000", "132032.507000", "132032.510000", "132032.512000", "132032.515000", "132032.518000", "132032.520000", "132032.523000", "132032.526000", "132032.529000", "132032.531000", "132112.480000", "132112.483000", "132112.485000", "132112.488000", "132112.491000", "132112.494000", "132112.496000", "132112.499000", "132112.502000", "132112.505000", "132112.507000", "132112.510000", "132112.513000", "132112.515000", "132112.518000", "132112.521000", "132112.524000", "132112.526000", "132112.529000", "132112.532000", "132152.479000", "132152.482000", "132152.485000", "132152.488000", "132152.491000", "132152.493000", "132152.496000", "132152.499000", "132152.501000", "132152.504000", "132152.507000", "132152.510000", "132152.512000", "132152.515000", "132152.518000", "132152.520000", "132152.523000", "132152.526000", "132152.529000", "132152.531000", "132232.480000", "132232.482000", "132232.485000", "132232.488000", "132232.491000", "132232.493000", "132232.496000", "132232.499000", "132232.501000", "132232.504000", "132232.507000", "132232.509000", "132232.512000", "132232.515000", "132232.518000", "132232.520000", "132232.523000", "132232.526000", "132232.528000", "132232.531000", "132312.481000", "132312.484000", "132312.486000", "132312.489000", "132312.492000", "132312.507000", "132312.510000", "132312.513000", "132312.515000", "132312.518000", "132312.521000", "132312.523000", "132312.526000", "132312.529000", "132312.532000", "132312.534000", "132312.537000", "132312.539000", "132312.542000", "132312.545000", "132352.479000", "132352.482000", "132352.485000", "132352.488000", "132352.491000", "132352.493000", "132352.496000", "132352.499000", "132352.501000", "132352.504000", "132352.507000", "132352.509000", "132352.512000", "132352.515000", "132352.518000", "132352.521000", "132352.523000", "132352.526000", "132352.529000", "132352.531000", "132432.480000", "132432.483000", "132432.486000", "132432.488000", "132432.491000", "132432.493000", "132432.496000", "132432.499000", "132432.501000", "132432.504000", "132432.507000", "132432.510000", "132432.512000", "132432.515000", "132432.518000", "132432.521000", "132432.523000", "132432.526000", "132432.529000", "132432.532000", "132512.480000", "132512.482000", "132512.485000", "132512.488000", "132512.491000", "132512.493000", "132512.496000", "132512.499000", "132512.501000", "132512.504000", "132512.507000", "132512.510000", "132512.512000", "132512.515000", "132512.518000", "132512.521000", "132512.523000", "132512.526000", "132512.529000", "132512.532000", "132552.480000", "132552.483000", "132552.486000", "132552.488000", "132552.491000", "132552.494000", "132552.497000", "132552.499000", "132552.502000", "132552.505000", "132552.508000", "132552.510000", "132552.513000", "132552.516000", "132552.519000", "132552.521000", "132552.524000", "132552.527000", "132552.530000", "132552.532000", "132632.480000", "132632.483000", "132632.485000", "132632.488000", "132632.491000", "132632.494000", "132632.497000", "132632.500000", "132632.503000", "132632.506000", "132632.508000", "132632.511000", "132632.514000", "132632.516000", "132632.519000", "132632.522000", "132632.524000", "132632.527000", "132632.530000", "132632.533000", "132642.070000", "132642.073000", "132642.076000", "132642.079000", "132642.082000"],
      "DataSetTrailingPadding": [
        "\u0000\u0000\u0000\u0000\u0000\u0000\u0000\u0000\u0000\u0000\u0000\u0000\u0000\u0000\u0000\u0000\u0000\u0000\u0000\u0000\u0000\u0000\u0000\u0000\u0000\u0000\u0000\u0000\u0000\u0000\u0000\u0000\u0000\u0000\u0000\u0000\u0000\u0000\u0000\u0000\u0000\u0000\u0000\u0000\u0000\u0000",
        "\u0000\u0000\u0000\u0000\u0000\u0000\u0000\u0000\u0000\u0000\u0000\u0000\u0000\u0000\u0000\u0000\u0000\u0000\u0000\u0000\u0000\u0000\u0000\u0000\u0000\u0000\u0000\u0000\u0000\u0000\u0000\u0000\u0000\u0000\u0000\u0000\u0000\u0000\u0000\u0000\u0000\u0000\u0000\u0000\u0000\u0000\u0000\u0000",
        "\u0000\u0000\u0000\u0000\u0000\u0000\u0000\u0000\u0000\u0000\u0000\u0000\u0000\u0000\u0000\u0000\u0000\u0000\u0000\u0000\u0000\u0000\u0000\u0000\u0000\u0000\u0000\u0000\u0000\u0000\u0000\u0000\u0000\u0000\u0000\u0000\u0000\u0000\u0000\u0000\u0000\u0000\u0000\u0000\u0000\u0000\u0000\u0000",
        "\u0000\u0000\u0000\u0000\u0000\u0000\u0000\u0000\u0000\u0000\u0000\u0000\u0000\u0000\u0000\u0000\u0000\u0000\u0000\u0000\u0000\u0000\u0000\u0000\u0000\u0000\u0000\u0000\u0000\u0000\u0000\u0000\u0000\u0000\u0000\u0000\u0000\u0000\u0000\u0000\u0000\u0000\u0000\u0000\u0000\u0000\u0000\u0000",
        "\u0000\u0000\u0000\u0000\u0000\u0000\u0000\u0000\u0000\u0000\u0000\u0000\u0000\u0000\u0000\u0000\u0000\u0000\u0000\u0000\u0000\u0000\u0000\u0000\u0000\u0000\u0000\u0000\u0000\u0000\u0000\u0000\u0000\u0000\u0000\u0000\u0000\u0000\u0000\u0000\u0000\u0000\u0000\u0000\u0000\u0000",
        "\u0000\u0000\u0000\u0000\u0000\u0000\u0000\u0000\u0000\u0000\u0000\u0000\u0000\u0000\u0000\u0000\u0000\u0000\u0000\u0000\u0000\u0000\u0000\u0000\u0000\u0000\u0000\u0000\u0000\u0000\u0000\u0000\u0000\u0000\u0000\u0000\u0000\u0000\u0000\u0000\u0000\u0000\u0000\u0000\u0000\u0000",
        "\u0000\u0000\u0000\u0000\u0000\u0000\u0000\u0000\u0000\u0000\u0000\u0000\u0000\u0000\u0000\u0000\u0000\u0000\u0000\u0000\u0000\u0000\u0000\u0000\u0000\u0000\u0000\u0000\u0000\u0000\u0000\u0000\u0000\u0000\u0000\u0000\u0000\u0000\u0000\u0000\u0000\u0000\u0000\u0000\u0000\u0000",
        "\u0000\u0000\u0000\u0000\u0000\u0000\u0000\u0000\u0000\u0000\u0000\u0000\u0000\u0000\u0000\u0000\u0000\u0000\u0000\u0000\u0000\u0000\u0000\u0000\u0000\u0000\u0000\u0000\u0000\u0000\u0000\u0000\u0000\u0000\u0000\u0000\u0000\u0000\u0000\u0000\u0000\u0000\u0000\u0000\u0000\u0000",
        "\u0000\u0000\u0000\u0000\u0000\u0000\u0000\u0000\u0000\u0000\u0000\u0000\u0000\u0000\u0000\u0000\u0000\u0000\u0000\u0000\u0000\u0000\u0000\u0000\u0000\u0000\u0000\u0000\u0000\u0000\u0000\u0000\u0000\u0000\u0000\u0000\u0000\u0000\u0000\u0000\u0000\u0000\u0000\u0000\u0000\u0000",
        "\u0000\u0000\u0000\u0000\u0000\u0000\u0000\u0000\u0000\u0000\u0000\u0000\u0000\u0000\u0000\u0000\u0000\u0000\u0000\u0000\u0000\u0000\u0000\u0000\u0000\u0000\u0000\u0000\u0000\u0000\u0000\u0000\u0000\u0000\u0000\u0000\u0000\u0000\u0000\u0000\u0000\u0000\u0000\u0000\u0000\u0000",
        "\u0000\u0000\u0000\u0000\u0000\u0000\u0000\u0000\u0000\u0000\u0000\u0000\u0000\u0000\u0000\u0000\u0000\u0000\u0000\u0000\u0000\u0000\u0000\u0000\u0000\u0000\u0000\u0000\u0000\u0000\u0000\u0000\u0000\u0000\u0000\u0000\u0000\u0000\u0000\u0000\u0000\u0000\u0000\u0000\u0000\u0000",
        "\u0000\u0000\u0000\u0000\u0000\u0000\u0000\u0000\u0000\u0000\u0000\u0000\u0000\u0000\u0000\u0000\u0000\u0000\u0000\u0000\u0000\u0000\u0000\u0000\u0000\u0000\u0000\u0000\u0000\u0000\u0000\u0000\u0000\u0000\u0000\u0000\u0000\u0000\u0000\u0000\u0000\u0000\u0000\u0000\u0000\u0000",
        "\u0000\u0000\u0000\u0000\u0000\u0000\u0000\u0000\u0000\u0000\u0000\u0000\u0000\u0000\u0000\u0000\u0000\u0000\u0000\u0000\u0000\u0000\u0000\u0000\u0000\u0000\u0000\u0000\u0000\u0000\u0000\u0000\u0000\u0000\u0000\u0000\u0000\u0000\u0000\u0000\u0000\u0000\u0000\u0000\u0000\u0000",
        "\u0000\u0000\u0000\u0000\u0000\u0000\u0000\u0000\u0000\u0000\u0000\u0000\u0000\u0000\u0000\u0000\u0000\u0000\u0000\u0000\u0000\u0000\u0000\u0000\u0000\u0000\u0000\u0000\u0000\u0000\u0000\u0000\u0000\u0000\u0000\u0000\u0000\u0000\u0000\u0000\u0000\u0000\u0000\u0000\u0000\u0000",
        "\u0000\u0000\u0000\u0000\u0000\u0000\u0000\u0000\u0000\u0000\u0000\u0000\u0000\u0000\u0000\u0000\u0000\u0000\u0000\u0000\u0000\u0000\u0000\u0000\u0000\u0000\u0000\u0000\u0000\u0000\u0000\u0000\u0000\u0000\u0000\u0000\u0000\u0000\u0000\u0000\u0000\u0000\u0000\u0000\u0000\u0000",
        "\u0000\u0000\u0000\u0000\u0000\u0000\u0000\u0000\u0000\u0000\u0000\u0000\u0000\u0000\u0000\u0000\u0000\u0000\u0000\u0000\u0000\u0000\u0000\u0000\u0000\u0000\u0000\u0000\u0000\u0000\u0000\u0000\u0000\u0000\u0000\u0000\u0000\u0000\u0000\u0000\u0000\u0000\u0000\u0000\u0000\u0000",
        "\u0000\u0000\u0000\u0000\u0000\u0000\u0000\u0000\u0000\u0000\u0000\u0000\u0000\u0000\u0000\u0000\u0000\u0000\u0000\u0000\u0000\u0000\u0000\u0000\u0000\u0000\u0000\u0000\u0000\u0000\u0000\u0000\u0000\u0000\u0000\u0000\u0000\u0000\u0000\u0000\u0000\u0000\u0000\u0000\u0000\u0000",
        "\u0000\u0000\u0000\u0000\u0000\u0000\u0000\u0000\u0000\u0000\u0000\u0000\u0000\u0000\u0000\u0000\u0000\u0000\u0000\u0000\u0000\u0000\u0000\u0000\u0000\u0000\u0000\u0000\u0000\u0000\u0000\u0000\u0000\u0000\u0000\u0000\u0000\u0000\u0000\u0000\u0000\u0000\u0000\u0000\u0000\u0000",
        "\u0000\u0000\u0000\u0000\u0000\u0000\u0000\u0000\u0000\u0000\u0000\u0000\u0000\u0000\u0000\u0000\u0000\u0000\u0000\u0000\u0000\u0000\u0000\u0000\u0000\u0000\u0000\u0000\u0000\u0000\u0000\u0000\u0000\u0000\u0000\u0000\u0000\u0000\u0000\u0000\u0000\u0000\u0000\u0000\u0000\u0000",
        "\u0000\u0000\u0000\u0000\u0000\u0000\u0000\u0000\u0000\u0000\u0000\u0000\u0000\u0000\u0000\u0000\u0000\u0000\u0000\u0000\u0000\u0000\u0000\u0000\u0000\u0000\u0000\u0000\u0000\u0000\u0000\u0000\u0000\u0000\u0000\u0000\u0000\u0000\u0000\u0000\u0000\u0000\u0000\u0000\u0000\u0000",
        "\u0000\u0000\u0000\u0000\u0000\u0000\u0000\u0000\u0000\u0000\u0000\u0000\u0000\u0000\u0000\u0000\u0000\u0000\u0000\u0000\u0000\u0000\u0000\u0000\u0000\u0000\u0000\u0000\u0000\u0000\u0000\u0000\u0000\u0000\u0000\u0000\u0000\u0000\u0000\u0000\u0000\u0000\u0000\u0000\u0000\u0000",
        "\u0000\u0000\u0000\u0000\u0000\u0000\u0000\u0000\u0000\u0000\u0000\u0000\u0000\u0000\u0000\u0000\u0000\u0000\u0000\u0000\u0000\u0000\u0000\u0000\u0000\u0000\u0000\u0000\u0000\u0000\u0000\u0000\u0000\u0000\u0000\u0000\u0000\u0000\u0000\u0000\u0000\u0000\u0000\u0000\u0000\u0000",
        "\u0000\u0000\u0000\u0000\u0000\u0000\u0000\u0000\u0000\u0000\u0000\u0000\u0000\u0000\u0000\u0000\u0000\u0000\u0000\u0000\u0000\u0000\u0000\u0000\u0000\u0000\u0000\u0000\u0000\u0000\u0000\u0000\u0000\u0000\u0000\u0000\u0000\u0000\u0000\u0000\u0000\u0000\u0000\u0000\u0000\u0000",
        "\u0000\u0000\u0000\u0000\u0000\u0000\u0000\u0000\u0000\u0000\u0000\u0000\u0000\u0000\u0000\u0000\u0000\u0000\u0000\u0000\u0000\u0000\u0000\u0000\u0000\u0000\u0000\u0000\u0000\u0000\u0000\u0000\u0000\u0000\u0000\u0000\u0000\u0000\u0000\u0000\u0000\u0000\u0000\u0000\u0000\u0000",
        "\u0000\u0000\u0000\u0000\u0000\u0000\u0000\u0000\u0000\u0000\u0000\u0000\u0000\u0000\u0000\u0000\u0000\u0000\u0000\u0000\u0000\u0000\u0000\u0000\u0000\u0000\u0000\u0000\u0000\u0000\u0000\u0000\u0000\u0000\u0000\u0000\u0000\u0000\u0000\u0000\u0000\u0000\u0000\u0000\u0000\u0000",
        "\u0000\u0000\u0000\u0000\u0000\u0000\u0000\u0000\u0000\u0000\u0000\u0000\u0000\u0000\u0000\u0000\u0000\u0000\u0000\u0000\u0000\u0000\u0000\u0000\u0000\u0000\u0000\u0000\u0000\u0000\u0000\u0000\u0000\u0000\u0000\u0000\u0000\u0000\u0000\u0000\u0000\u0000\u0000\u0000\u0000\u0000",
        "\u0000\u0000\u0000\u0000\u0000\u0000\u0000\u0000\u0000\u0000\u0000\u0000\u0000\u0000\u0000\u0000\u0000\u0000\u0000\u0000\u0000\u0000\u0000\u0000\u0000\u0000\u0000\u0000\u0000\u0000\u0000\u0000\u0000\u0000\u0000\u0000\u0000\u0000\u0000\u0000\u0000\u0000\u0000\u0000\u0000\u0000",
        "\u0000\u0000\u0000\u0000\u0000\u0000\u0000\u0000\u0000\u0000\u0000\u0000\u0000\u0000\u0000\u0000\u0000\u0000\u0000\u0000\u0000\u0000\u0000\u0000\u0000\u0000\u0000\u0000\u0000\u0000\u0000\u0000\u0000\u0000\u0000\u0000\u0000\u0000\u0000\u0000\u0000\u0000\u0000\u0000\u0000\u0000",
        "\u0000\u0000\u0000\u0000\u0000\u0000\u0000\u0000\u0000\u0000\u0000\u0000\u0000\u0000\u0000\u0000\u0000\u0000\u0000\u0000\u0000\u0000\u0000\u0000\u0000\u0000\u0000\u0000\u0000\u0000\u0000\u0000\u0000\u0000\u0000\u0000\u0000\u0000\u0000\u0000\u0000\u0000\u0000\u0000\u0000\u0000",
        "\u0000\u0000\u0000\u0000\u0000\u0000\u0000\u0000\u0000\u0000\u0000\u0000\u0000\u0000\u0000\u0000\u0000\u0000\u0000\u0000\u0000\u0000\u0000\u0000\u0000\u0000\u0000\u0000\u0000\u0000\u0000\u0000\u0000\u0000\u0000\u0000\u0000\u0000\u0000\u0000\u0000\u0000\u0000\u0000\u0000\u0000",
        "\u0000\u0000\u0000\u0000\u0000\u0000\u0000\u0000\u0000\u0000\u0000\u0000\u0000\u0000\u0000\u0000\u0000\u0000\u0000\u0000\u0000\u0000\u0000\u0000\u0000\u0000\u0000\u0000\u0000\u0000\u0000\u0000\u0000\u0000\u0000\u0000\u0000\u0000\u0000\u0000\u0000\u0000\u0000\u0000\u0000\u0000",
        "\u0000\u0000\u0000\u0000\u0000\u0000\u0000\u0000\u0000\u0000\u0000\u0000\u0000\u0000\u0000\u0000\u0000\u0000\u0000\u0000\u0000\u0000\u0000\u0000\u0000\u0000\u0000\u0000\u0000\u0000\u0000\u0000\u0000\u0000\u0000\u0000\u0000\u0000\u0000\u0000\u0000\u0000\u0000\u0000\u0000\u0000",
        "\u0000\u0000\u0000\u0000\u0000\u0000\u0000\u0000\u0000\u0000\u0000\u0000\u0000\u0000\u0000\u0000\u0000\u0000\u0000\u0000\u0000\u0000\u0000\u0000\u0000\u0000\u0000\u0000\u0000\u0000\u0000\u0000\u0000\u0000\u0000\u0000\u0000\u0000\u0000\u0000\u0000\u0000\u0000\u0000\u0000\u0000",
        "\u0000\u0000\u0000\u0000\u0000\u0000\u0000\u0000\u0000\u0000\u0000\u0000\u0000\u0000\u0000\u0000\u0000\u0000\u0000\u0000\u0000\u0000\u0000\u0000\u0000\u0000\u0000\u0000\u0000\u0000\u0000\u0000\u0000\u0000\u0000\u0000\u0000\u0000\u0000\u0000\u0000\u0000\u0000\u0000\u0000\u0000",
        "\u0000\u0000\u0000\u0000\u0000\u0000\u0000\u0000\u0000\u0000\u0000\u0000\u0000\u0000\u0000\u0000\u0000\u0000\u0000\u0000\u0000\u0000\u0000\u0000\u0000\u0000\u0000\u0000\u0000\u0000\u0000\u0000\u0000\u0000\u0000\u0000\u0000\u0000\u0000\u0000\u0000\u0000\u0000\u0000\u0000\u0000",
        "\u0000\u0000\u0000\u0000\u0000\u0000\u0000\u0000\u0000\u0000\u0000\u0000\u0000\u0000\u0000\u0000\u0000\u0000\u0000\u0000\u0000\u0000\u0000\u0000\u0000\u0000\u0000\u0000\u0000\u0000\u0000\u0000\u0000\u0000\u0000\u0000\u0000\u0000\u0000\u0000\u0000\u0000\u0000\u0000\u0000\u0000",
        "\u0000\u0000\u0000\u0000\u0000\u0000\u0000\u0000\u0000\u0000\u0000\u0000\u0000\u0000\u0000\u0000\u0000\u0000\u0000\u0000\u0000\u0000\u0000\u0000\u0000\u0000\u0000\u0000\u0000\u0000\u0000\u0000\u0000\u0000\u0000\u0000\u0000\u0000\u0000\u0000\u0000\u0000\u0000\u0000\u0000\u0000",
        "\u0000\u0000\u0000\u0000\u0000\u0000\u0000\u0000\u0000\u0000\u0000\u0000\u0000\u0000\u0000\u0000\u0000\u0000\u0000\u0000\u0000\u0000\u0000\u0000\u0000\u0000\u0000\u0000\u0000\u0000\u0000\u0000\u0000\u0000\u0000\u0000\u0000\u0000\u0000\u0000\u0000\u0000\u0000\u0000\u0000\u0000",
        "\u0000\u0000\u0000\u0000\u0000\u0000\u0000\u0000\u0000\u0000\u0000\u0000\u0000\u0000\u0000\u0000\u0000\u0000\u0000\u0000\u0000\u0000\u0000\u0000\u0000\u0000\u0000\u0000\u0000\u0000\u0000\u0000\u0000\u0000\u0000\u0000\u0000\u0000\u0000\u0000\u0000\u0000\u0000\u0000\u0000\u0000",
